File Version;BWSpec4.03_23_C
Date;2016-12-02 15:07:57
title;OOQ
model;BTC264P-1064S-512-SY
c code;OOQ
operator;
port1;0
baud1;3
pixel_start;0
pixel_end;511
step;1
units;3
bkcolor;16777215
show_mode;3
data_mode;0
pixel_mode;0
intigration times(ms);10000
average number;3
time_multiply;1
spectrometer_type ;69
yaxis;1
yaxis_min;0
yaxis_max;65535
xaxis;1
xaxis_min;57
xaxis_max;485
irrands_DispWLMin;100
irrands_DispWLMax;1000
yaxis_min_6;0
yaxis_max_6;0
irradiance_unit;0
Color_Data_Flag;0
Color_StartWL;1047
Color_EndWL;1047
Color_IncWL;10
power_unit_index;3
photometric_index;0
Illuminant_index;3
observer_index;0
lab_l;0
lab_a;0
lab_b;0
radiometric_flag;0
coefs_a0;1046.24128246353
coefs_a1;0.823573912287285
coefs_a2;-1.46846754231925E-05
coefs_a3;7.81270546723139E-08
coefs_b0;-1068.71157857918
coefs_b1;0.657654928142611
coefs_b2;0.000510871962843009
coefs_b3;-1.55922148884732E-07
coefs_r0;1
coefs_r1;0
coefs_r2;0
coefs_r3;0
coefs_j0;1
coefs_j1;0
coefs_j2;0
coefs_j3;0
enable_coefs_r;0
all_data_save;1
select_option;-1
interval_time;10000
pixel_num;512
sel_pixel_start;1
sel_pixel_end;511
sel_pixel_delta;1
dark_compensate;0
dark_compensate_value_1;0
dark_compensate_value_2;0
dark_compensate_value_3;0
monitor pixel_0;0
monitor pixel_1;0
monitor pixel_2;0
monitor pixel_3;0
monitor pixel_4;0
monitor pixel_5;0
vertical_select_flag;0
vertical_line3;44
vertical_line4;44
vertical_line3_wv;349.610890369397
vertical_line4_wv;349.610890369397
vertical_line_flag;0
vertical_line_ratio;0
laser_wavelength;1064.4
laser_powerlevel;100
overlay_js;0
Relative Intensity Correction Flag;0
Pixel;Wavelength;Wavenumber;Raman Shift;Dark;Reference;Raw data #1;Dark Subtracted #1;%TR #1;Absorbance #1;Irradiance (lumen) #1;
0;   ;   ;   ;3142.3333;65535.0000;3168.6667;26.3333;0.0000;0.0000;0.0000;
1;   ;   ;   ;3380.0000;65535.0000;3380.0000;0.0000;0.0000;0.0000;0.0000;
2;   ;   ;   ;3162.0000;65535.0000;3138.3333;-23.6667;0.0000;0.0000;0.0000;
3;   ;   ;   ;3276.0000;65535.0000;3267.0000;-9.0000;0.0000;0.0000;0.0000;
4;   ;   ;   ;3130.3333;65535.0000;3108.3333;-22.0000;0.0000;0.0000;0.0000;
5;   ;   ;   ;3452.0000;65535.0000;3454.6667;2.6667;0.0000;0.0000;0.0000;
6;   ;   ;   ;2650.6667;65535.0000;2657.3333;6.6667;0.0000;0.0000;0.0000;
7;   ;   ;   ;3413.6667;65535.0000;3417.3333;3.6667;0.0000;0.0000;0.0000;
8;   ;   ;   ;2580.0000;65535.0000;2593.6667;13.6667;0.0000;0.0000;0.0000;
9;   ;   ;   ;3341.0000;65535.0000;3329.6667;-11.3333;0.0000;0.0000;0.0000;
10;   ;   ;   ;3317.0000;65535.0000;3334.6667;17.6667;0.0000;0.0000;0.0000;
11;   ;   ;   ;3203.6667;65535.0000;3192.0000;-11.6667;0.0000;0.0000;0.0000;
12;   ;   ;   ;3032.0000;65535.0000;3038.6667;6.6667;0.0000;0.0000;0.0000;
13;   ;   ;   ;3133.0000;65535.0000;3177.0000;44.0000;0.0000;0.0000;0.0000;
14;   ;   ;   ;3119.0000;65535.0000;3158.6667;39.6667;0.0000;0.0000;0.0000;
15;   ;   ;   ;3314.0000;65535.0000;3307.0000;-7.0000;0.0000;0.0000;0.0000;
16;   ;   ;   ;3398.6667;65535.0000;3404.6667;6.0000;0.0000;0.0000;0.0000;
17;   ;   ;   ;3052.0000;65535.0000;3064.0000;12.0000;0.0000;0.0000;0.0000;
18;   ;   ;   ;2887.0000;65535.0000;2910.0000;23.0000;0.0000;0.0000;0.0000;
19;   ;   ;   ;3832.6667;65535.0000;3949.3333;116.6667;0.0000;0.0000;0.0000;
20;   ;   ;   ;3304.3333;65535.0000;4656.3333;1352.0000;0.0000;0.0000;0.0000;
21;   ;   ;   ;3017.0000;65535.0000;7053.0000;4036.0000;0.0000;0.0000;0.0000;
22;   ;   ;   ;3243.3333;65535.0000;7217.6667;3974.3333;0.0000;0.0000;0.0000;
23;   ;   ;   ;3241.6667;65535.0000;5771.6667;2530.0000;0.0000;0.0000;0.0000;
24;   ;   ;   ;2508.0000;65535.0000;2822.0000;314.0000;0.0000;0.0000;0.0000;
25;   ;   ;   ;3492.6667;65535.0000;3562.0000;69.3333;0.0000;0.0000;0.0000;
26;   ;   ;   ;2923.0000;65535.0000;2948.6667;25.6667;0.0000;0.0000;0.0000;
27;   ;   ;   ;3315.3333;65535.0000;3327.6667;12.3333;0.0000;0.0000;0.0000;
28;   ;   ;   ;2960.0000;65535.0000;2956.6667;-3.3333;0.0000;0.0000;0.0000;
29;   ;   ;   ;3358.0000;65535.0000;3364.6667;6.6667;0.0000;0.0000;0.0000;
30;   ;   ;   ;2987.0000;65535.0000;3052.0000;65.0000;0.0000;0.0000;0.0000;
31;   ;   ;   ;3224.6667;65535.0000;3527.3333;302.6667;0.0000;0.0000;0.0000;
32;   ;   ;   ;3237.3333;65535.0000;3965.6667;728.3333;0.0000;0.0000;0.0000;
33;   ;   ;   ;3405.3333;65535.0000;4531.6667;1126.3333;0.0000;0.0000;0.0000;
34;   ;   ;   ;3043.3333;65535.0000;4405.3333;1362.0000;0.0000;0.0000;0.0000;
35;   ;   ;   ;3718.3333;65535.0000;4974.3333;1256.0000;0.0000;0.0000;0.0000;
36;   ;   ;   ;3123.0000;65535.0000;4346.0000;1223.0000;0.0000;0.0000;0.0000;
37;   ;   ;   ;3580.3333;65535.0000;4666.6667;1086.3333;0.0000;0.0000;0.0000;
38;   ;   ;   ;3227.3333;65535.0000;4168.0000;940.6667;0.0000;0.0000;0.0000;
39;   ;   ;   ;3208.0000;65535.0000;4053.0000;845.0000;0.0000;0.0000;0.0000;
40;   ;   ;   ;3202.6667;65535.0000;3963.0000;760.3333;0.0000;0.0000;0.0000;
41;   ;   ;   ;3518.0000;65535.0000;4238.6667;720.6667;0.0000;0.0000;0.0000;
42;   ;   ;   ;3677.3333;65535.0000;4358.3333;681.0000;0.0000;0.0000;0.0000;
43;   ;   ;   ;3102.3333;65535.0000;3727.6667;625.3333;0.0000;0.0000;0.0000;
44;   ;   ;   ;3410.0000;65535.0000;4000.6667;590.6667;0.0000;0.0000;0.0000;
45;   ;   ;   ;3224.3333;65535.0000;3767.6667;543.3333;0.0000;0.0000;0.0000;
46;   ;   ;   ;3372.0000;65535.0000;3869.0000;497.0000;0.0000;0.0000;0.0000;
47;   ;   ;   ;3543.0000;65535.0000;4018.3333;475.3333;0.0000;0.0000;0.0000;
48;   ;   ;   ;3196.0000;65535.0000;3699.0000;503.0000;0.0000;0.0000;0.0000;
49;   ;   ;   ;3184.3333;65535.0000;3652.0000;467.6667;0.0000;0.0000;0.0000;
50;   ;   ;   ;3231.0000;65535.0000;3679.3333;448.3333;0.0000;0.0000;0.0000;
51;   ;   ;   ;3456.3333;65535.0000;3911.3333;455.0000;0.0000;0.0000;0.0000;
52;   ;   ;   ;3322.6667;65535.0000;3775.0000;452.3333;0.0000;0.0000;0.0000;
53;   ;   ;   ;3186.0000;65535.0000;3617.0000;431.0000;0.0000;0.0000;0.0000;
54;   ;   ;   ;2732.0000;65535.0000;3187.3333;455.3333;0.0000;0.0000;0.0000;
55;   ;   ;   ;3270.0000;65535.0000;3649.3333;379.3333;0.0000;0.0000;0.0000;
56;   ;   ;   ;3557.6667;65535.0000;3899.3333;341.6667;0.0000;0.0000;0.0000;
57;1093.15;9147.86;247.10;3658.6667;65535.0000;4027.0000;368.3333;0.0000;0.0000;0.0000;
58;1093.97;9140.98;253.98;3133.6667;65535.0000;3471.6667;338.0000;0.0000;0.0000;0.0000;
59;1094.80;9134.11;260.85;3454.0000;65535.0000;3765.0000;311.0000;0.0000;0.0000;0.0000;
60;1095.62;9127.25;267.71;3365.0000;65535.0000;3680.6667;315.6667;0.0000;0.0000;0.0000;
61;1096.44;9120.41;274.56;3073.0000;65535.0000;3388.6667;315.6667;0.0000;0.0000;0.0000;
62;1097.27;9113.57;281.40;3337.3333;65535.0000;3611.3333;274.0000;0.0000;0.0000;0.0000;
63;1098.09;9106.74;288.22;3683.0000;65535.0000;3936.3333;253.3333;0.0000;0.0000;0.0000;
64;1098.91;9099.92;295.04;3191.3333;65535.0000;3466.6667;275.3333;0.0000;0.0000;0.0000;
65;1099.73;9093.12;301.85;3127.6667;65535.0000;3388.3333;260.6667;0.0000;0.0000;0.0000;
66;1100.56;9086.32;308.65;3284.0000;65535.0000;3529.0000;245.0000;0.0000;0.0000;0.0000;
67;1101.38;9079.53;315.43;3589.6667;65535.0000;3824.3333;234.6667;0.0000;0.0000;0.0000;
68;1102.20;9072.76;322.21;3089.3333;65535.0000;3339.6667;250.3333;0.0000;0.0000;0.0000;
69;1103.02;9065.99;328.98;3543.6667;65535.0000;3761.0000;217.3333;0.0000;0.0000;0.0000;
70;1103.85;9059.23;335.73;3140.3333;65535.0000;3372.6667;232.3333;0.0000;0.0000;0.0000;
71;1104.67;9052.49;342.48;3669.3333;65535.0000;3856.0000;186.6667;0.0000;0.0000;0.0000;
72;1105.49;9045.75;349.22;3297.3333;65535.0000;3505.3333;208.0000;0.0000;0.0000;0.0000;
73;1106.31;9039.02;355.94;3718.6667;65535.0000;3988.6667;270.0000;0.0000;0.0000;0.0000;
74;1107.14;9032.31;362.66;3112.6667;65535.0000;3316.3333;203.6667;0.0000;0.0000;0.0000;
75;1107.96;9025.60;369.37;3334.3333;65535.0000;3581.3333;247.0000;0.0000;0.0000;0.0000;
76;1108.78;9018.90;376.06;3286.6667;65535.0000;3489.3333;202.6667;0.0000;0.0000;0.0000;
77;1109.61;9012.22;382.75;3307.3333;65535.0000;3458.3333;151.0000;0.0000;0.0000;0.0000;
78;1110.43;9005.54;389.43;3393.3333;65535.0000;3618.3333;225.0000;0.0000;0.0000;0.0000;
79;1111.25;8998.87;396.09;3887.0000;65535.0000;4082.3333;195.3333;0.0000;0.0000;0.0000;
80;1112.07;8992.21;402.75;3293.0000;65535.0000;3497.6667;204.6667;0.0000;0.0000;0.0000;
81;1112.90;8985.57;409.40;3397.6667;65535.0000;3610.0000;212.3333;0.0000;0.0000;0.0000;
82;1113.72;8978.93;416.04;3142.6667;65535.0000;3346.6667;204.0000;0.0000;0.0000;0.0000;
83;1114.54;8972.30;422.66;3669.3333;65535.0000;3844.6667;175.3333;0.0000;0.0000;0.0000;
84;1115.36;8965.68;429.28;3320.6667;65535.0000;3481.3333;160.6667;0.0000;0.0000;0.0000;
85;1116.19;8959.07;435.89;3676.6667;65535.0000;3888.3333;211.6667;0.0000;0.0000;0.0000;
86;1117.01;8952.47;442.49;3405.0000;65535.0000;3610.6667;205.6667;0.0000;0.0000;0.0000;
87;1117.83;8945.88;449.08;3340.0000;65535.0000;3504.3333;164.3333;0.0000;0.0000;0.0000;
88;1118.66;8939.30;455.66;3066.6667;65535.0000;3250.6667;184.0000;0.0000;0.0000;0.0000;
89;1119.48;8932.73;462.23;3227.6667;65535.0000;3402.3333;174.6667;0.0000;0.0000;0.0000;
90;1120.30;8926.17;468.79;2947.6667;65535.0000;3119.6667;172.0000;0.0000;0.0000;0.0000;
91;1121.12;8919.62;475.34;3546.6667;65535.0000;3714.0000;167.3333;0.0000;0.0000;0.0000;
92;1121.95;8913.08;481.88;3522.0000;65535.0000;3719.0000;197.0000;0.0000;0.0000;0.0000;
93;1122.77;8906.55;488.42;3537.0000;65535.0000;3723.0000;186.0000;0.0000;0.0000;0.0000;
94;1123.59;8900.02;494.94;2982.0000;65535.0000;3142.0000;160.0000;0.0000;0.0000;0.0000;
95;1124.42;8893.51;501.45;3783.0000;65535.0000;3921.6667;138.6667;0.0000;0.0000;0.0000;
96;1125.24;8887.01;507.96;3510.0000;65535.0000;3637.6667;127.6667;0.0000;0.0000;0.0000;
97;1126.06;8880.51;514.45;3747.6667;65535.0000;3890.3333;142.6667;0.0000;0.0000;0.0000;
98;1126.88;8874.03;520.94;3144.0000;65535.0000;3326.6667;182.6667;0.0000;0.0000;0.0000;
99;1127.71;8867.55;527.41;3414.3333;65535.0000;3543.0000;128.6667;0.0000;0.0000;0.0000;
100;1128.53;8861.09;533.88;3127.0000;65535.0000;3285.3333;158.3333;0.0000;0.0000;0.0000;
101;1129.35;8854.63;540.34;3339.6667;65535.0000;3518.0000;178.3333;0.0000;0.0000;0.0000;
102;1130.18;8848.18;546.78;2785.0000;65535.0000;2931.6667;146.6667;0.0000;0.0000;0.0000;
103;1131.00;8841.74;553.22;3226.3333;65535.0000;3351.0000;124.6667;0.0000;0.0000;0.0000;
104;1131.82;8835.31;559.65;3081.6667;65535.0000;3243.6667;162.0000;0.0000;0.0000;0.0000;
105;1132.65;8828.89;566.07;3588.6667;65535.0000;3697.6667;109.0000;0.0000;0.0000;0.0000;
106;1133.47;8822.48;572.48;2783.3333;65535.0000;2895.6667;112.3333;0.0000;0.0000;0.0000;
107;1134.29;8816.08;578.89;3332.6667;65535.0000;3427.6667;95.0000;0.0000;0.0000;0.0000;
108;1135.11;8809.68;585.28;3180.0000;65535.0000;3290.6667;110.6667;0.0000;0.0000;0.0000;
109;1135.94;8803.30;591.66;2699.3333;65535.0000;2878.3333;179.0000;0.0000;0.0000;0.0000;
110;1136.76;8796.93;598.04;3323.6667;65535.0000;3432.3333;108.6667;0.0000;0.0000;0.0000;
111;1137.58;8790.56;604.40;3580.0000;65535.0000;3756.0000;176.0000;0.0000;0.0000;0.0000;
112;1138.41;8784.20;610.76;3431.0000;65535.0000;3616.0000;185.0000;0.0000;0.0000;0.0000;
113;1139.23;8777.86;617.11;3233.0000;65535.0000;3352.3333;119.3333;0.0000;0.0000;0.0000;
114;1140.05;8771.52;623.45;3421.3333;65535.0000;3571.3333;150.0000;0.0000;0.0000;0.0000;
115;1140.88;8765.19;629.78;3614.6667;65535.0000;3703.3333;88.6667;0.0000;0.0000;0.0000;
116;1141.70;8758.87;636.10;3143.0000;65535.0000;3268.0000;125.0000;0.0000;0.0000;0.0000;
117;1142.52;8752.55;642.41;3454.3333;65535.0000;3570.3333;116.0000;0.0000;0.0000;0.0000;
118;1143.35;8746.25;648.71;2971.3333;65535.0000;3123.6667;152.3333;0.0000;0.0000;0.0000;
119;1144.17;8739.96;655.01;3729.0000;65535.0000;3839.3333;110.3333;0.0000;0.0000;0.0000;
120;1144.99;8733.67;661.29;3439.0000;65535.0000;3566.0000;127.0000;0.0000;0.0000;0.0000;
121;1145.82;8727.40;667.57;3658.3333;65535.0000;3786.3333;128.0000;0.0000;0.0000;0.0000;
122;1146.64;8721.13;673.84;3225.6667;65535.0000;3328.3333;102.6667;0.0000;0.0000;0.0000;
123;1147.46;8714.87;680.09;3548.3333;65535.0000;3627.3333;79.0000;0.0000;0.0000;0.0000;
124;1148.29;8708.62;686.34;3160.6667;65535.0000;3243.0000;82.3333;0.0000;0.0000;0.0000;
125;1149.11;8702.38;692.59;3680.3333;65535.0000;3767.3333;87.0000;0.0000;0.0000;0.0000;
126;1149.93;8696.15;698.82;3120.3333;65535.0000;3245.0000;124.6667;0.0000;0.0000;0.0000;
127;1150.76;8689.92;705.04;3551.0000;65535.0000;3670.6667;119.6667;0.0000;0.0000;0.0000;
128;1151.58;8683.71;711.26;3054.6667;65535.0000;3164.6667;110.0000;0.0000;0.0000;0.0000;
129;1152.41;8677.50;717.46;3615.0000;65535.0000;3742.6667;127.6667;0.0000;0.0000;0.0000;
130;1153.23;8671.30;723.66;3482.0000;65535.0000;3656.3333;174.3333;0.0000;0.0000;0.0000;
131;1154.05;8665.11;729.85;3556.6667;65535.0000;3672.0000;115.3333;0.0000;0.0000;0.0000;
132;1154.88;8658.93;736.03;3695.3333;65535.0000;3818.6667;123.3333;0.0000;0.0000;0.0000;
133;1155.70;8652.76;742.20;3558.3333;65535.0000;3642.3333;84.0000;0.0000;0.0000;0.0000;
134;1156.52;8646.60;748.37;3339.3333;65535.0000;3460.0000;120.6667;0.0000;0.0000;0.0000;
135;1157.35;8640.44;754.52;3668.3333;65535.0000;3784.6667;116.3333;0.0000;0.0000;0.0000;
136;1158.17;8634.29;760.67;3322.0000;65535.0000;3440.0000;118.0000;0.0000;0.0000;0.0000;
137;1159.00;8628.16;766.81;3546.6667;65535.0000;3681.6667;135.0000;0.0000;0.0000;0.0000;
138;1159.82;8622.03;772.94;3520.0000;65535.0000;3637.6667;117.6667;0.0000;0.0000;0.0000;
139;1160.64;8615.91;779.06;3506.0000;65535.0000;3619.6667;113.6667;0.0000;0.0000;0.0000;
140;1161.47;8609.79;785.17;3595.6667;65535.0000;3703.0000;107.3333;0.0000;0.0000;0.0000;
141;1162.29;8603.69;791.28;3437.0000;65535.0000;3533.6667;96.6667;0.0000;0.0000;0.0000;
142;1163.12;8597.59;797.37;3196.3333;65535.0000;3296.6667;100.3333;0.0000;0.0000;0.0000;
143;1163.94;8591.50;803.46;3603.0000;65535.0000;3754.6667;151.6667;0.0000;0.0000;0.0000;
144;1164.76;8585.42;809.54;3343.6667;65535.0000;3492.6667;149.0000;0.0000;0.0000;0.0000;
145;1165.59;8579.35;815.61;3826.0000;65535.0000;4040.0000;214.0000;0.0000;0.0000;0.0000;
146;1166.41;8573.29;821.67;3397.3333;65535.0000;3625.6667;228.3333;0.0000;0.0000;0.0000;
147;1167.24;8567.24;827.73;3198.0000;65535.0000;3404.0000;206.0000;0.0000;0.0000;0.0000;
148;1168.06;8561.19;833.77;3552.3333;65535.0000;3758.0000;205.6667;0.0000;0.0000;0.0000;
149;1168.89;8555.15;839.81;3133.0000;65535.0000;3374.0000;241.0000;0.0000;0.0000;0.0000;
150;1169.71;8549.12;845.84;3083.0000;65535.0000;3347.6667;264.6667;0.0000;0.0000;0.0000;
151;1170.54;8543.10;851.86;3163.3333;65535.0000;3436.6667;273.3333;0.0000;0.0000;0.0000;
152;1171.36;8537.09;857.88;3601.3333;65535.0000;3886.6667;285.3333;0.0000;0.0000;0.0000;
153;1172.18;8531.08;863.88;3521.0000;65535.0000;3801.0000;280.0000;0.0000;0.0000;0.0000;
154;1173.01;8525.09;869.88;2983.0000;65535.0000;3290.3333;307.3333;0.0000;0.0000;0.0000;
155;1173.83;8519.10;875.87;3388.0000;65535.0000;3696.6667;308.6667;0.0000;0.0000;0.0000;
156;1174.66;8513.12;881.85;3557.3333;65535.0000;3821.0000;263.6667;0.0000;0.0000;0.0000;
157;1175.48;8507.14;887.82;3592.6667;65535.0000;3868.3333;275.6667;0.0000;0.0000;0.0000;
158;1176.31;8501.18;893.79;3143.3333;65535.0000;3409.3333;266.0000;0.0000;0.0000;0.0000;
159;1177.13;8495.22;899.74;3597.3333;65535.0000;3827.6667;230.3333;0.0000;0.0000;0.0000;
160;1177.96;8489.27;905.69;2767.0000;65535.0000;2999.6667;232.6667;0.0000;0.0000;0.0000;
161;1178.78;8483.33;911.63;3523.0000;65535.0000;3775.3333;252.3333;0.0000;0.0000;0.0000;
162;1179.61;8477.40;917.56;3163.0000;65535.0000;3393.6667;230.6667;0.0000;0.0000;0.0000;
163;1180.43;8471.47;923.49;3413.0000;65535.0000;3649.0000;236.0000;0.0000;0.0000;0.0000;
164;1181.26;8465.56;929.41;3109.3333;65535.0000;3361.6667;252.3333;0.0000;0.0000;0.0000;
165;1182.08;8459.65;935.32;3409.3333;65535.0000;3643.0000;233.6667;0.0000;0.0000;0.0000;
166;1182.91;8453.75;941.22;3221.6667;65535.0000;3462.3333;240.6667;0.0000;0.0000;0.0000;
167;1183.73;8447.85;947.11;3186.6667;65535.0000;3447.3333;260.6667;0.0000;0.0000;0.0000;
168;1184.56;8441.97;952.99;3421.0000;65535.0000;3674.3333;253.3333;0.0000;0.0000;0.0000;
169;1185.38;8436.09;958.87;3526.3333;65535.0000;3748.3333;222.0000;0.0000;0.0000;0.0000;
170;1186.21;8430.22;964.74;3383.0000;65535.0000;3668.0000;285.0000;0.0000;0.0000;0.0000;
171;1187.03;8424.36;970.60;3618.0000;65535.0000;3879.0000;261.0000;0.0000;0.0000;0.0000;
172;1187.86;8418.51;976.46;3371.3333;65535.0000;3628.0000;256.6667;0.0000;0.0000;0.0000;
173;1188.68;8412.66;982.30;3542.0000;65535.0000;3776.6667;234.6667;0.0000;0.0000;0.0000;
174;1189.51;8406.82;988.14;3248.3333;65535.0000;3436.0000;187.6667;0.0000;0.0000;0.0000;
175;1190.34;8400.99;993.97;3336.3333;65535.0000;3515.3333;179.0000;0.0000;0.0000;0.0000;
176;1191.16;8395.17;999.80;3302.6667;65535.0000;3516.3333;213.6667;0.0000;0.0000;0.0000;
177;1191.99;8389.35;1005.61;3375.6667;65535.0000;3586.3333;210.6667;0.0000;0.0000;0.0000;
178;1192.81;8383.55;1011.42;2871.0000;65535.0000;3089.6667;218.6667;0.0000;0.0000;0.0000;
179;1193.64;8377.75;1017.22;3807.0000;65535.0000;4041.0000;234.0000;0.0000;0.0000;0.0000;
180;1194.46;8371.95;1023.01;3387.6667;65535.0000;3647.6667;260.0000;0.0000;0.0000;0.0000;
181;1195.29;8366.17;1028.80;3774.3333;65535.0000;4028.3333;254.0000;0.0000;0.0000;0.0000;
182;1196.12;8360.39;1034.57;3520.0000;65535.0000;3811.6667;291.6667;0.0000;0.0000;0.0000;
183;1196.94;8354.62;1040.34;3058.0000;65535.0000;3312.6667;254.6667;0.0000;0.0000;0.0000;
184;1197.77;8348.86;1046.10;3482.0000;65535.0000;3736.3333;254.3333;0.0000;0.0000;0.0000;
185;1198.59;8343.10;1051.86;3546.3333;65535.0000;3796.3333;250.0000;0.0000;0.0000;0.0000;
186;1199.42;8337.36;1057.61;2791.3333;65535.0000;3069.0000;277.6667;0.0000;0.0000;0.0000;
187;1200.25;8331.62;1063.35;3300.0000;65535.0000;3610.6667;310.6667;0.0000;0.0000;0.0000;
188;1201.07;8325.89;1069.08;3403.6667;65535.0000;3775.0000;371.3333;0.0000;0.0000;0.0000;
189;1201.90;8320.16;1074.80;2857.0000;65535.0000;3258.6667;401.6667;0.0000;0.0000;0.0000;
190;1202.73;8314.45;1080.52;3129.6667;65535.0000;3493.6667;364.0000;0.0000;0.0000;0.0000;
191;1203.55;8308.74;1086.23;3532.6667;65535.0000;3915.0000;382.3333;0.0000;0.0000;0.0000;
192;1204.38;8303.03;1091.93;2818.6667;65535.0000;3174.3333;355.6667;0.0000;0.0000;0.0000;
193;1205.21;8297.34;1097.63;3294.0000;65535.0000;3562.0000;268.0000;0.0000;0.0000;0.0000;
194;1206.03;8291.65;1103.31;3232.6667;65535.0000;3448.0000;215.3333;0.0000;0.0000;0.0000;
195;1206.86;8285.97;1108.99;3497.0000;65535.0000;3666.3333;169.3333;0.0000;0.0000;0.0000;
196;1207.69;8280.30;1114.67;3251.0000;65535.0000;3416.3333;165.3333;0.0000;0.0000;0.0000;
197;1208.51;8274.63;1120.33;3126.0000;65535.0000;3295.3333;169.3333;0.0000;0.0000;0.0000;
198;1209.34;8268.98;1125.99;3104.6667;65535.0000;3347.6667;243.0000;0.0000;0.0000;0.0000;
199;1210.17;8263.32;1131.64;3506.3333;65535.0000;3657.0000;150.6667;0.0000;0.0000;0.0000;
200;1210.99;8257.68;1137.28;3470.0000;65535.0000;3612.3333;142.3333;0.0000;0.0000;0.0000;
201;1211.82;8252.05;1142.92;3693.0000;65535.0000;3822.6667;129.6667;0.0000;0.0000;0.0000;
202;1212.65;8246.42;1148.55;3093.6667;65535.0000;3258.6667;165.0000;0.0000;0.0000;0.0000;
203;1213.48;8240.79;1154.17;3440.0000;65535.0000;3586.3333;146.3333;0.0000;0.0000;0.0000;
204;1214.30;8235.18;1159.78;3518.3333;65535.0000;3658.6667;140.3333;0.0000;0.0000;0.0000;
205;1215.13;8229.57;1165.39;3549.6667;65535.0000;3692.0000;142.3333;0.0000;0.0000;0.0000;
206;1215.96;8223.97;1170.99;3093.0000;65535.0000;3258.6667;165.6667;0.0000;0.0000;0.0000;
207;1216.78;8218.38;1176.58;3271.0000;65535.0000;3456.0000;185.0000;0.0000;0.0000;0.0000;
208;1217.61;8212.79;1182.17;3153.0000;65535.0000;3272.0000;119.0000;0.0000;0.0000;0.0000;
209;1218.44;8207.22;1187.75;3399.0000;65535.0000;3523.3333;124.3333;0.0000;0.0000;0.0000;
210;1219.27;8201.64;1193.32;3144.3333;65535.0000;3289.0000;144.6667;0.0000;0.0000;0.0000;
211;1220.10;8196.08;1198.88;3425.3333;65535.0000;3509.3333;84.0000;0.0000;0.0000;0.0000;
212;1220.92;8190.52;1204.44;2722.3333;65535.0000;2824.3333;102.0000;0.0000;0.0000;0.0000;
213;1221.75;8184.97;1209.99;3888.0000;65535.0000;4010.0000;122.0000;0.0000;0.0000;0.0000;
214;1222.58;8179.43;1215.54;3279.6667;65535.0000;3418.3333;138.6667;0.0000;0.0000;0.0000;
215;1223.41;8173.89;1221.07;3590.0000;65535.0000;3710.0000;120.0000;0.0000;0.0000;0.0000;
216;1224.24;8168.36;1226.60;3509.6667;65535.0000;3631.6667;122.0000;0.0000;0.0000;0.0000;
217;1225.06;8162.84;1232.12;3449.6667;65535.0000;3549.6667;100.0000;0.0000;0.0000;0.0000;
218;1225.89;8157.33;1237.64;2982.6667;65535.0000;3161.3333;178.6667;0.0000;0.0000;0.0000;
219;1226.72;8151.82;1243.15;3419.6667;65535.0000;3615.0000;195.3333;0.0000;0.0000;0.0000;
220;1227.55;8146.32;1248.65;2945.6667;65535.0000;3179.3333;233.6667;0.0000;0.0000;0.0000;
221;1228.38;8140.82;1254.14;3343.6667;65535.0000;3596.6667;253.0000;0.0000;0.0000;0.0000;
222;1229.21;8135.33;1259.63;3441.6667;65535.0000;3739.0000;297.3333;0.0000;0.0000;0.0000;
223;1230.03;8129.85;1265.11;3061.6667;65535.0000;3381.3333;319.6667;0.0000;0.0000;0.0000;
224;1230.86;8124.38;1270.58;3484.3333;65535.0000;3824.6667;340.3333;0.0000;0.0000;0.0000;
225;1231.69;8118.91;1276.05;3287.0000;65535.0000;3605.3333;318.3333;0.0000;0.0000;0.0000;
226;1232.52;8113.45;1281.51;3438.6667;65535.0000;3749.6667;311.0000;0.0000;0.0000;0.0000;
227;1233.35;8108.00;1286.96;3375.0000;65535.0000;3680.0000;305.0000;0.0000;0.0000;0.0000;
228;1234.18;8102.55;1292.41;3325.3333;65535.0000;3695.0000;369.6667;0.0000;0.0000;0.0000;
229;1235.01;8097.11;1297.85;3677.0000;65535.0000;4129.6667;452.6667;0.0000;0.0000;0.0000;
230;1235.84;8091.68;1303.28;2938.0000;65535.0000;3453.3333;515.3333;0.0000;0.0000;0.0000;
231;1236.67;8086.26;1308.71;3771.3333;65535.0000;4235.3333;464.0000;0.0000;0.0000;0.0000;
232;1237.50;8080.84;1314.13;3410.6667;65535.0000;3785.0000;374.3333;0.0000;0.0000;0.0000;
233;1238.33;8075.42;1319.54;2965.3333;65535.0000;3265.3333;300.0000;0.0000;0.0000;0.0000;
234;1239.15;8070.02;1324.95;3464.0000;65535.0000;3717.0000;253.0000;0.0000;0.0000;0.0000;
235;1239.98;8064.62;1330.34;2894.6667;65535.0000;3126.6667;232.0000;0.0000;0.0000;0.0000;
236;1240.81;8059.23;1335.74;3654.0000;65535.0000;3796.0000;142.0000;0.0000;0.0000;0.0000;
237;1241.64;8053.84;1341.12;3462.3333;65535.0000;3625.6667;163.3333;0.0000;0.0000;0.0000;
238;1242.47;8048.46;1346.50;3321.6667;65535.0000;3450.6667;129.0000;0.0000;0.0000;0.0000;
239;1243.30;8043.09;1351.87;3566.3333;65535.0000;3711.3333;145.0000;0.0000;0.0000;0.0000;
240;1244.13;8037.72;1357.24;2862.3333;65535.0000;2966.3333;104.0000;0.0000;0.0000;0.0000;
241;1244.96;8032.37;1362.60;3001.6667;65535.0000;3118.3333;116.6667;0.0000;0.0000;0.0000;
242;1245.79;8027.01;1367.95;3243.6667;65535.0000;3393.3333;149.6667;0.0000;0.0000;0.0000;
243;1246.62;8021.67;1373.30;3516.6667;65535.0000;3657.0000;140.3333;0.0000;0.0000;0.0000;
244;1247.45;8016.33;1378.64;3293.3333;65535.0000;3420.6667;127.3333;0.0000;0.0000;0.0000;
245;1248.28;8010.99;1383.97;3414.3333;65535.0000;3515.0000;100.6667;0.0000;0.0000;0.0000;
246;1249.11;8005.67;1389.30;3403.6667;65535.0000;3521.3333;117.6667;0.0000;0.0000;0.0000;
247;1249.95;8000.35;1394.62;3547.3333;65535.0000;3595.3333;48.0000;0.0000;0.0000;0.0000;
248;1250.78;7995.04;1399.93;2988.3333;65535.0000;3098.6667;110.3333;0.0000;0.0000;0.0000;
249;1251.61;7989.73;1405.24;3330.0000;65535.0000;3452.0000;122.0000;0.0000;0.0000;0.0000;
250;1252.44;7984.43;1410.54;3146.0000;65535.0000;3268.6667;122.6667;0.0000;0.0000;0.0000;
251;1253.27;7979.14;1415.83;3541.6667;65535.0000;3721.3333;179.6667;0.0000;0.0000;0.0000;
252;1254.10;7973.85;1421.12;3268.0000;65535.0000;3480.3333;212.3333;0.0000;0.0000;0.0000;
253;1254.93;7968.57;1426.40;3689.3333;65535.0000;4011.3333;322.0000;0.0000;0.0000;0.0000;
254;1255.76;7963.29;1431.67;3573.3333;65535.0000;4047.0000;473.6667;0.0000;0.0000;0.0000;
255;1256.59;7958.02;1436.94;3486.6667;65535.0000;4167.0000;680.3333;0.0000;0.0000;0.0000;
256;1257.42;7952.76;1442.20;3143.0000;65535.0000;3866.0000;723.0000;0.0000;0.0000;0.0000;
257;1258.26;7947.51;1447.46;3588.3333;65535.0000;4284.3333;696.0000;0.0000;0.0000;0.0000;
258;1259.09;7942.26;1452.71;3277.0000;65535.0000;3886.0000;609.0000;0.0000;0.0000;0.0000;
259;1259.92;7937.02;1457.95;3448.0000;65535.0000;3985.6667;537.6667;0.0000;0.0000;0.0000;
260;1260.75;7931.78;1463.18;3571.3333;65535.0000;4001.0000;429.6667;0.0000;0.0000;0.0000;
261;1261.58;7926.55;1468.41;3261.3333;65535.0000;3599.3333;338.0000;0.0000;0.0000;0.0000;
262;1262.41;7921.33;1473.64;3447.3333;65535.0000;3683.6667;236.3333;0.0000;0.0000;0.0000;
263;1263.25;7916.11;1478.85;3541.3333;65535.0000;3708.0000;166.6667;0.0000;0.0000;0.0000;
264;1264.08;7910.90;1484.07;2926.6667;65535.0000;3088.3333;161.6667;0.0000;0.0000;0.0000;
265;1264.91;7905.69;1489.27;3483.0000;65535.0000;3618.6667;135.6667;0.0000;0.0000;0.0000;
266;1265.74;7900.50;1494.47;3441.6667;65535.0000;3520.6667;79.0000;0.0000;0.0000;0.0000;
267;1266.58;7895.30;1499.66;3381.3333;65535.0000;3483.0000;101.6667;0.0000;0.0000;0.0000;
268;1267.41;7890.12;1504.85;3366.0000;65535.0000;3459.3333;93.3333;0.0000;0.0000;0.0000;
269;1268.24;7884.94;1510.03;3145.0000;65535.0000;3251.0000;106.0000;0.0000;0.0000;0.0000;
270;1269.07;7879.76;1515.20;2877.0000;65535.0000;2995.0000;118.0000;0.0000;0.0000;0.0000;
271;1269.91;7874.60;1520.37;3362.3333;65535.0000;3464.0000;101.6667;0.0000;0.0000;0.0000;
272;1270.74;7869.44;1525.53;2996.0000;65535.0000;3134.6667;138.6667;0.0000;0.0000;0.0000;
273;1271.57;7864.28;1530.68;3652.0000;65535.0000;3750.0000;98.0000;0.0000;0.0000;0.0000;
274;1272.41;7859.13;1535.83;3204.6667;65535.0000;3283.0000;78.3333;0.0000;0.0000;0.0000;
275;1273.24;7853.99;1540.98;3488.3333;65535.0000;3543.3333;55.0000;0.0000;0.0000;0.0000;
276;1274.07;7848.85;1546.11;3130.0000;65535.0000;3186.3333;56.3333;0.0000;0.0000;0.0000;
277;1274.91;7843.72;1551.24;3034.0000;65535.0000;3130.6667;96.6667;0.0000;0.0000;0.0000;
278;1275.74;7838.60;1556.37;3595.3333;65535.0000;3690.3333;95.0000;0.0000;0.0000;0.0000;
279;1276.57;7833.48;1561.49;3670.6667;65535.0000;3763.3333;92.6667;0.0000;0.0000;0.0000;
280;1277.41;7828.37;1566.60;3340.0000;65535.0000;3403.3333;63.3333;0.0000;0.0000;0.0000;
281;1278.24;7823.26;1571.70;3433.3333;65535.0000;3469.6667;36.3333;0.0000;0.0000;0.0000;
282;1279.07;7818.16;1576.80;3196.0000;65535.0000;3270.0000;74.0000;0.0000;0.0000;0.0000;
283;1279.91;7813.07;1581.90;3365.0000;65535.0000;3417.0000;52.0000;0.0000;0.0000;0.0000;
284;1280.74;7807.98;1586.99;3372.6667;65535.0000;3388.0000;15.3333;0.0000;0.0000;0.0000;
285;1281.58;7802.89;1592.07;3224.3333;65535.0000;3281.0000;56.6667;0.0000;0.0000;0.0000;
286;1282.41;7797.82;1597.15;3629.0000;65535.0000;3664.0000;35.0000;0.0000;0.0000;0.0000;
287;1283.24;7792.75;1602.22;3429.0000;65535.0000;3499.6667;70.6667;0.0000;0.0000;0.0000;
288;1284.08;7787.68;1607.28;3345.6667;65535.0000;3379.6667;34.0000;0.0000;0.0000;0.0000;
289;1284.91;7782.63;1612.34;4120.3333;65535.0000;4172.3333;52.0000;0.0000;0.0000;0.0000;
290;1285.75;7777.57;1617.39;3439.6667;65535.0000;3515.6667;76.0000;0.0000;0.0000;0.0000;
291;1286.58;7772.53;1622.44;3536.6667;65535.0000;3541.0000;4.3333;0.0000;0.0000;0.0000;
292;1287.42;7767.49;1627.48;3422.6667;65535.0000;3525.6667;103.0000;0.0000;0.0000;0.0000;
293;1288.25;7762.45;1632.51;3035.3333;65535.0000;3094.6667;59.3333;0.0000;0.0000;0.0000;
294;1289.09;7757.42;1637.54;3254.3333;65535.0000;3327.3333;73.0000;0.0000;0.0000;0.0000;
295;1289.92;7752.40;1642.57;3300.6667;65535.0000;3434.6667;134.0000;0.0000;0.0000;0.0000;
296;1290.76;7747.38;1647.58;3383.6667;65535.0000;3599.6667;216.0000;0.0000;0.0000;0.0000;
297;1291.59;7742.37;1652.59;3625.3333;65535.0000;3994.0000;368.6667;0.0000;0.0000;0.0000;
298;1292.43;7737.36;1657.60;3233.6667;65535.0000;3589.6667;356.0000;0.0000;0.0000;0.0000;
299;1293.27;7732.36;1662.60;3731.3333;65535.0000;4017.3333;286.0000;0.0000;0.0000;0.0000;
300;1294.10;7727.37;1667.59;3217.0000;65535.0000;3397.0000;180.0000;0.0000;0.0000;0.0000;
301;1294.94;7722.38;1672.58;3477.6667;65535.0000;3654.3333;176.6667;0.0000;0.0000;0.0000;
302;1295.77;7717.40;1677.56;3314.6667;65535.0000;3380.0000;65.3333;0.0000;0.0000;0.0000;
303;1296.61;7712.42;1682.54;3219.6667;65535.0000;3323.6667;104.0000;0.0000;0.0000;0.0000;
304;1297.45;7707.45;1687.51;2828.0000;65535.0000;2927.3333;99.3333;0.0000;0.0000;0.0000;
305;1298.28;7702.49;1692.48;3056.3333;65535.0000;3132.3333;76.0000;0.0000;0.0000;0.0000;
306;1299.12;7697.53;1697.44;3642.6667;65535.0000;3644.3333;1.6667;0.0000;0.0000;0.0000;
307;1299.96;7692.57;1702.39;3729.6667;65535.0000;3749.0000;19.3333;0.0000;0.0000;0.0000;
308;1300.79;7687.63;1707.34;3592.3333;65535.0000;3610.6667;18.3333;0.0000;0.0000;0.0000;
309;1301.63;7682.68;1712.28;3380.0000;65535.0000;3383.6667;3.6667;0.0000;0.0000;0.0000;
310;1302.47;7677.75;1717.22;3286.3333;65535.0000;3312.3333;26.0000;0.0000;0.0000;0.0000;
311;1303.30;7672.82;1722.15;3563.0000;65535.0000;3594.0000;31.0000;0.0000;0.0000;0.0000;
312;1304.14;7667.89;1727.07;3524.6667;65535.0000;3538.0000;13.3333;0.0000;0.0000;0.0000;
313;1304.98;7662.97;1731.99;3808.6667;65535.0000;3868.0000;59.3333;0.0000;0.0000;0.0000;
314;1305.81;7658.06;1736.91;3615.6667;65535.0000;3687.3333;71.6667;0.0000;0.0000;0.0000;
315;1306.65;7653.15;1741.82;3679.6667;65535.0000;3763.0000;83.3333;0.0000;0.0000;0.0000;
316;1307.49;7648.24;1746.72;3577.3333;65535.0000;3707.3333;130.0000;0.0000;0.0000;0.0000;
317;1308.33;7643.35;1751.62;3283.3333;65535.0000;3355.6667;72.3333;0.0000;0.0000;0.0000;
318;1309.17;7638.46;1756.51;2989.3333;65535.0000;3083.3333;94.0000;0.0000;0.0000;0.0000;
319;1310.00;7633.57;1761.40;3298.6667;65535.0000;3363.6667;65.0000;0.0000;0.0000;0.0000;
320;1310.84;7628.69;1766.28;3467.3333;65535.0000;3535.0000;67.6667;0.0000;0.0000;0.0000;
321;1311.68;7623.81;1771.15;3692.3333;65535.0000;3716.6667;24.3333;0.0000;0.0000;0.0000;
322;1312.52;7618.94;1776.02;3489.0000;65535.0000;3539.6667;50.6667;0.0000;0.0000;0.0000;
323;1313.36;7614.08;1780.88;3425.0000;65535.0000;3472.6667;47.6667;0.0000;0.0000;0.0000;
324;1314.19;7609.22;1785.74;3158.0000;65535.0000;3199.0000;41.0000;0.0000;0.0000;0.0000;
325;1315.03;7604.37;1790.60;3318.3333;65535.0000;3329.0000;10.6667;0.0000;0.0000;0.0000;
326;1315.87;7599.52;1795.44;3254.0000;65535.0000;3264.0000;10.0000;0.0000;0.0000;0.0000;
327;1316.71;7594.68;1800.29;3762.0000;65535.0000;3799.6667;37.6667;0.0000;0.0000;0.0000;
328;1317.55;7589.84;1805.12;2847.6667;65535.0000;2876.6667;29.0000;0.0000;0.0000;0.0000;
329;1318.39;7585.01;1809.95;3617.6667;65535.0000;3629.3333;11.6667;0.0000;0.0000;0.0000;
330;1319.23;7580.18;1814.78;3523.0000;65535.0000;3543.0000;20.0000;0.0000;0.0000;0.0000;
331;1320.07;7575.36;1819.60;3161.0000;65535.0000;3229.3333;68.3333;0.0000;0.0000;0.0000;
332;1320.91;7570.55;1824.42;3165.6667;65535.0000;3202.3333;36.6667;0.0000;0.0000;0.0000;
333;1321.75;7565.74;1829.23;3591.6667;65535.0000;3625.0000;33.3333;0.0000;0.0000;0.0000;
334;1322.59;7560.93;1834.03;3720.6667;65535.0000;3715.0000;-5.6667;0.0000;0.0000;0.0000;
335;1323.43;7556.14;1838.83;3282.6667;65535.0000;3303.6667;21.0000;0.0000;0.0000;0.0000;
336;1324.27;7551.34;1843.62;3142.3333;65535.0000;3177.3333;35.0000;0.0000;0.0000;0.0000;
337;1325.11;7546.55;1848.41;3263.6667;65535.0000;3254.0000;-9.6667;0.0000;0.0000;0.0000;
338;1325.95;7541.77;1853.19;3469.3333;65535.0000;3430.0000;-39.3333;0.0000;0.0000;0.0000;
339;1326.79;7536.99;1857.97;3673.6667;65535.0000;3691.3333;17.6667;0.0000;0.0000;0.0000;
340;1327.63;7532.22;1862.74;3477.3333;65535.0000;3462.0000;-15.3333;0.0000;0.0000;0.0000;
341;1328.47;7527.45;1867.51;3500.6667;65535.0000;3530.6667;30.0000;0.0000;0.0000;0.0000;
342;1329.31;7522.69;1872.27;3682.6667;65535.0000;3702.6667;20.0000;0.0000;0.0000;0.0000;
343;1330.15;7517.94;1877.03;3367.3333;65535.0000;3375.3333;8.0000;0.0000;0.0000;0.0000;
344;1330.99;7513.19;1881.78;3228.6667;65535.0000;3235.6667;7.0000;0.0000;0.0000;0.0000;
345;1331.83;7508.44;1886.52;3160.6667;65535.0000;3133.3333;-27.3333;0.0000;0.0000;0.0000;
346;1332.68;7503.70;1891.27;3125.3333;65535.0000;3158.6667;33.3333;0.0000;0.0000;0.0000;
347;1333.52;7498.96;1896.00;3388.0000;65535.0000;3396.0000;8.0000;0.0000;0.0000;0.0000;
348;1334.36;7494.23;1900.73;3216.0000;65535.0000;3215.6667;-0.3333;0.0000;0.0000;0.0000;
349;1335.20;7489.51;1905.46;3442.3333;65535.0000;3459.3333;17.0000;0.0000;0.0000;0.0000;
350;1336.04;7484.79;1910.18;2928.0000;65535.0000;2948.0000;20.0000;0.0000;0.0000;0.0000;
351;1336.89;7480.07;1914.89;3196.6667;65535.0000;3167.6667;-29.0000;0.0000;0.0000;0.0000;
352;1337.73;7475.37;1919.60;3214.6667;65535.0000;3222.6667;8.0000;0.0000;0.0000;0.0000;
353;1338.57;7470.66;1924.30;3535.0000;65535.0000;3501.6667;-33.3333;0.0000;0.0000;0.0000;
354;1339.41;7465.96;1929.00;2900.6667;65535.0000;2919.0000;18.3333;0.0000;0.0000;0.0000;
355;1340.25;7461.27;1933.70;3321.6667;65535.0000;3312.3333;-9.3333;0.0000;0.0000;0.0000;
356;1341.10;7456.58;1938.38;3217.0000;65535.0000;3243.0000;26.0000;0.0000;0.0000;0.0000;
357;1341.94;7451.90;1943.07;3077.0000;65535.0000;3131.3333;54.3333;0.0000;0.0000;0.0000;
358;1342.78;7447.22;1947.75;3504.6667;65535.0000;3509.0000;4.3333;0.0000;0.0000;0.0000;
359;1343.63;7442.54;1952.42;3477.3333;65535.0000;3510.0000;32.6667;0.0000;0.0000;0.0000;
360;1344.47;7437.88;1957.09;3335.6667;65535.0000;3384.0000;48.3333;0.0000;0.0000;0.0000;
361;1345.31;7433.21;1961.75;3676.3333;65535.0000;3662.0000;-14.3333;0.0000;0.0000;0.0000;
362;1346.16;7428.55;1966.41;3227.3333;65535.0000;3239.3333;12.0000;0.0000;0.0000;0.0000;
363;1347.00;7423.90;1971.06;3390.6667;65535.0000;3397.3333;6.6667;0.0000;0.0000;0.0000;
364;1347.84;7419.25;1975.71;3145.6667;65535.0000;3157.0000;11.3333;0.0000;0.0000;0.0000;
365;1348.69;7414.61;1980.35;3095.3333;65535.0000;3105.0000;9.6667;0.0000;0.0000;0.0000;
366;1349.53;7409.97;1984.99;2847.6667;65535.0000;2858.3333;10.6667;0.0000;0.0000;0.0000;
367;1350.38;7405.34;1989.62;3598.3333;65535.0000;3630.3333;32.0000;0.0000;0.0000;0.0000;
368;1351.22;7400.71;1994.25;3541.6667;65535.0000;3565.0000;23.3333;0.0000;0.0000;0.0000;
369;1352.07;7396.09;1998.88;3575.0000;65535.0000;3594.0000;19.0000;0.0000;0.0000;0.0000;
370;1352.91;7391.47;2003.49;3208.6667;65535.0000;3244.6667;36.0000;0.0000;0.0000;0.0000;
371;1353.76;7386.86;2008.11;3188.6667;65535.0000;3204.6667;16.0000;0.0000;0.0000;0.0000;
372;1354.60;7382.25;2012.71;3673.3333;65535.0000;3704.0000;30.6667;0.0000;0.0000;0.0000;
373;1355.45;7377.65;2017.32;3819.3333;65535.0000;3835.0000;15.6667;0.0000;0.0000;0.0000;
374;1356.29;7373.05;2021.92;3366.6667;65535.0000;3345.0000;-21.6667;0.0000;0.0000;0.0000;
375;1357.14;7368.46;2026.51;3620.6667;65535.0000;3641.6667;21.0000;0.0000;0.0000;0.0000;
376;1357.98;7363.87;2031.10;3222.0000;65535.0000;3218.0000;-4.0000;0.0000;0.0000;0.0000;
377;1358.83;7359.28;2035.68;3498.0000;65535.0000;3521.3333;23.3333;0.0000;0.0000;0.0000;
378;1359.67;7354.71;2040.26;3139.3333;65535.0000;3173.3333;34.0000;0.0000;0.0000;0.0000;
379;1360.52;7350.13;2044.83;3632.6667;65535.0000;3631.6667;-1.0000;0.0000;0.0000;0.0000;
380;1361.37;7345.56;2049.40;3391.6667;65535.0000;3415.6667;24.0000;0.0000;0.0000;0.0000;
381;1362.21;7341.00;2053.96;3892.3333;65535.0000;3881.0000;-11.3333;0.0000;0.0000;0.0000;
382;1363.06;7336.44;2058.52;3717.6667;65535.0000;3744.3333;26.6667;0.0000;0.0000;0.0000;
383;1363.91;7331.89;2063.08;3198.3333;65535.0000;3209.6667;11.3333;0.0000;0.0000;0.0000;
384;1364.75;7327.34;2067.63;3430.0000;65535.0000;3483.6667;53.6667;0.0000;0.0000;0.0000;
385;1365.60;7322.79;2072.17;2979.3333;65535.0000;3000.6667;21.3333;0.0000;0.0000;0.0000;
386;1366.45;7318.25;2076.71;3271.0000;65535.0000;3280.0000;9.0000;0.0000;0.0000;0.0000;
387;1367.29;7313.72;2081.24;3823.6667;65535.0000;3828.0000;4.3333;0.0000;0.0000;0.0000;
388;1368.14;7309.19;2085.77;3319.0000;65535.0000;3351.6667;32.6667;0.0000;0.0000;0.0000;
389;1368.99;7304.66;2090.30;3542.0000;65535.0000;3538.0000;-4.0000;0.0000;0.0000;0.0000;
390;1369.84;7300.14;2094.82;3421.6667;65535.0000;3415.6667;-6.0000;0.0000;0.0000;0.0000;
391;1370.68;7295.63;2099.34;3738.6667;65535.0000;3755.0000;16.3333;0.0000;0.0000;0.0000;
392;1371.53;7291.12;2103.85;3494.6667;65535.0000;3488.0000;-6.6667;0.0000;0.0000;0.0000;
393;1372.38;7286.61;2108.35;3327.6667;65535.0000;3356.6667;29.0000;0.0000;0.0000;0.0000;
394;1373.23;7282.11;2112.85;2991.6667;65535.0000;3013.6667;22.0000;0.0000;0.0000;0.0000;
395;1374.08;7277.61;2117.35;3682.3333;65535.0000;3675.6667;-6.6667;0.0000;0.0000;0.0000;
396;1374.93;7273.12;2121.84;3286.0000;65535.0000;3314.0000;28.0000;0.0000;0.0000;0.0000;
397;1375.77;7268.63;2126.33;3815.0000;65535.0000;3797.6667;-17.3333;0.0000;0.0000;0.0000;
398;1376.62;7264.15;2130.81;3034.0000;65535.0000;3064.0000;30.0000;0.0000;0.0000;0.0000;
399;1377.47;7259.67;2135.29;3659.0000;65535.0000;3704.3333;45.3333;0.0000;0.0000;0.0000;
400;1378.32;7255.20;2139.76;3119.6667;65535.0000;3124.3333;4.6667;0.0000;0.0000;0.0000;
401;1379.17;7250.73;2144.23;3678.6667;65535.0000;3699.0000;20.3333;0.0000;0.0000;0.0000;
402;1380.02;7246.27;2148.69;3322.0000;65535.0000;3365.6667;43.6667;0.0000;0.0000;0.0000;
403;1380.87;7241.81;2153.15;3367.3333;65535.0000;3375.0000;7.6667;0.0000;0.0000;0.0000;
404;1381.72;7237.36;2157.61;2996.0000;65535.0000;3010.6667;14.6667;0.0000;0.0000;0.0000;
405;1382.57;7232.91;2162.06;3592.6667;65535.0000;3583.0000;-9.6667;0.0000;0.0000;0.0000;
406;1383.42;7228.46;2166.50;3234.0000;65535.0000;3266.0000;32.0000;0.0000;0.0000;0.0000;
407;1384.27;7224.02;2170.94;3835.3333;65535.0000;3820.0000;-15.3333;0.0000;0.0000;0.0000;
408;1385.12;7219.59;2175.38;3209.0000;65535.0000;3204.6667;-4.3333;0.0000;0.0000;0.0000;
409;1385.97;7215.15;2179.81;3645.3333;65535.0000;3643.3333;-2.0000;0.0000;0.0000;0.0000;
410;1386.82;7210.73;2184.24;3696.0000;65535.0000;3743.0000;47.0000;0.0000;0.0000;0.0000;
411;1387.67;7206.31;2188.66;3690.6667;65535.0000;3711.0000;20.3333;0.0000;0.0000;0.0000;
412;1388.52;7201.89;2193.08;3208.3333;65535.0000;3247.3333;39.0000;0.0000;0.0000;0.0000;
413;1389.38;7197.47;2197.49;3814.3333;65535.0000;3808.3333;-6.0000;0.0000;0.0000;0.0000;
414;1390.23;7193.07;2201.90;3054.0000;65535.0000;3110.3333;56.3333;0.0000;0.0000;0.0000;
415;1391.08;7188.66;2206.30;3507.0000;65535.0000;3517.6667;10.6667;0.0000;0.0000;0.0000;
416;1391.93;7184.26;2210.70;3146.0000;65535.0000;3180.3333;34.3333;0.0000;0.0000;0.0000;
417;1392.78;7179.87;2215.10;3217.6667;65535.0000;3199.6667;-18.0000;0.0000;0.0000;0.0000;
418;1393.64;7175.48;2219.49;3031.0000;65535.0000;3041.3333;10.3333;0.0000;0.0000;0.0000;
419;1394.49;7171.09;2223.87;3610.0000;65535.0000;3681.6667;71.6667;0.0000;0.0000;0.0000;
420;1395.34;7166.71;2228.25;3678.0000;65535.0000;3700.6667;22.6667;0.0000;0.0000;0.0000;
421;1396.19;7162.33;2232.63;3974.3333;65535.0000;3934.3333;-40.0000;0.0000;0.0000;0.0000;
422;1397.05;7157.96;2237.00;3556.3333;65535.0000;3547.3333;-9.0000;0.0000;0.0000;0.0000;
423;1397.90;7153.59;2241.37;3548.3333;65535.0000;3575.0000;26.6667;0.0000;0.0000;0.0000;
424;1398.75;7149.23;2245.73;3076.0000;65535.0000;3080.0000;4.0000;0.0000;0.0000;0.0000;
425;1399.61;7144.87;2250.09;3507.6667;65535.0000;3519.3333;11.6667;0.0000;0.0000;0.0000;
426;1400.46;7140.52;2254.45;3370.0000;65535.0000;3398.3333;28.3333;0.0000;0.0000;0.0000;
427;1401.31;7136.17;2258.80;3719.6667;65535.0000;3714.6667;-5.0000;0.0000;0.0000;0.0000;
428;1402.17;7131.82;2263.14;3004.6667;65535.0000;3011.6667;7.0000;0.0000;0.0000;0.0000;
429;1403.02;7127.48;2267.48;3686.0000;65535.0000;3724.0000;38.0000;0.0000;0.0000;0.0000;
430;1403.87;7123.14;2271.82;3025.0000;65535.0000;3016.0000;-9.0000;0.0000;0.0000;0.0000;
431;1404.73;7118.81;2276.15;3623.3333;65535.0000;3624.6667;1.3333;0.0000;0.0000;0.0000;
432;1405.58;7114.48;2280.48;2743.6667;65535.0000;2770.0000;26.3333;0.0000;0.0000;0.0000;
433;1406.44;7110.16;2284.80;3255.6667;65535.0000;3234.3333;-21.3333;0.0000;0.0000;0.0000;
434;1407.29;7105.84;2289.12;3150.0000;65535.0000;3124.0000;-26.0000;0.0000;0.0000;0.0000;
435;1408.15;7101.53;2293.44;3307.0000;65535.0000;3295.6667;-11.3333;0.0000;0.0000;0.0000;
436;1409.00;7097.22;2297.75;3404.3333;65535.0000;3414.0000;9.6667;0.0000;0.0000;0.0000;
437;1409.86;7092.91;2302.06;3436.0000;65535.0000;3444.6667;8.6667;0.0000;0.0000;0.0000;
438;1410.71;7088.61;2306.36;3442.6667;65535.0000;3450.0000;7.3333;0.0000;0.0000;0.0000;
439;1411.57;7084.31;2310.65;3415.3333;65535.0000;3392.0000;-23.3333;0.0000;0.0000;0.0000;
440;1412.43;7080.02;2314.95;3061.6667;65535.0000;3069.6667;8.0000;0.0000;0.0000;0.0000;
441;1413.28;7075.73;2319.24;3475.0000;65535.0000;3446.3333;-28.6667;0.0000;0.0000;0.0000;
442;1414.14;7071.44;2323.52;3307.0000;65535.0000;3330.0000;23.0000;0.0000;0.0000;0.0000;
443;1414.99;7067.16;2327.80;4185.3333;65535.0000;4153.3333;-32.0000;0.0000;0.0000;0.0000;
444;1415.85;7062.89;2332.08;3191.6667;65535.0000;3230.0000;38.3333;0.0000;0.0000;0.0000;
445;1416.71;7058.62;2336.35;3367.6667;65535.0000;3362.3333;-5.3333;0.0000;0.0000;0.0000;
446;1417.57;7054.35;2340.62;3292.3333;65535.0000;3311.0000;18.6667;0.0000;0.0000;0.0000;
447;1418.42;7050.09;2344.88;3690.6667;65535.0000;3700.3333;9.6667;0.0000;0.0000;0.0000;
448;1419.28;7045.83;2349.14;3306.6667;65535.0000;3312.6667;6.0000;0.0000;0.0000;0.0000;
449;1420.14;7041.57;2353.39;3386.6667;65535.0000;3364.0000;-22.6667;0.0000;0.0000;0.0000;
450;1421.00;7037.32;2357.64;3067.6667;65535.0000;3083.3333;15.6667;0.0000;0.0000;0.0000;
451;1421.85;7033.08;2361.89;3539.6667;65535.0000;3528.3333;-11.3333;0.0000;0.0000;0.0000;
452;1422.71;7028.83;2366.13;3146.3333;65535.0000;3145.6667;-0.6667;0.0000;0.0000;0.0000;
453;1423.57;7024.60;2370.37;3204.6667;65535.0000;3199.0000;-5.6667;0.0000;0.0000;0.0000;
454;1424.43;7020.36;2374.60;3327.3333;65535.0000;3336.0000;8.6667;0.0000;0.0000;0.0000;
455;1425.29;7016.13;2378.83;3828.0000;65535.0000;3865.3333;37.3333;0.0000;0.0000;0.0000;
456;1426.15;7011.91;2383.06;3104.6667;65535.0000;3117.3333;12.6667;0.0000;0.0000;0.0000;
457;1427.00;7007.69;2387.28;3330.6667;65535.0000;3310.0000;-20.6667;0.0000;0.0000;0.0000;
458;1427.86;7003.47;2391.49;3010.0000;65535.0000;2990.3333;-19.6667;0.0000;0.0000;0.0000;
459;1428.72;6999.26;2395.71;3711.6667;65535.0000;3715.3333;3.6667;0.0000;0.0000;0.0000;
460;1429.58;6995.05;2399.92;3501.0000;65535.0000;3494.0000;-7.0000;0.0000;0.0000;0.0000;
461;1430.44;6990.84;2404.12;3482.3333;65535.0000;3452.3333;-30.0000;0.0000;0.0000;0.0000;
462;1431.30;6986.64;2408.32;3274.0000;65535.0000;3280.0000;6.0000;0.0000;0.0000;0.0000;
463;1432.16;6982.45;2412.52;3232.6667;65535.0000;3268.3333;35.6667;0.0000;0.0000;0.0000;
464;1433.02;6978.26;2416.71;3250.6667;65535.0000;3245.6667;-5.0000;0.0000;0.0000;0.0000;
465;1433.88;6974.07;2420.90;3511.0000;65535.0000;3526.3333;15.3333;0.0000;0.0000;0.0000;
466;1434.74;6969.88;2425.08;3539.0000;65535.0000;3518.3333;-20.6667;0.0000;0.0000;0.0000;
467;1435.60;6965.71;2429.26;3679.3333;65535.0000;3648.6667;-30.6667;0.0000;0.0000;0.0000;
468;1436.47;6961.53;2433.43;3273.0000;65535.0000;3294.3333;21.3333;0.0000;0.0000;0.0000;
469;1437.33;6957.36;2437.61;3771.3333;65535.0000;3769.3333;-2.0000;0.0000;0.0000;0.0000;
470;1438.19;6953.19;2441.77;3282.3333;65535.0000;3261.6667;-20.6667;0.0000;0.0000;0.0000;
471;1439.05;6949.03;2445.94;3049.0000;65535.0000;3040.3333;-8.6667;0.0000;0.0000;0.0000;
472;1439.91;6944.87;2450.10;3442.3333;65535.0000;3440.3333;-2.0000;0.0000;0.0000;0.0000;
473;1440.77;6940.71;2454.25;3568.6667;65535.0000;3592.0000;23.3333;0.0000;0.0000;0.0000;
474;1441.64;6936.56;2458.40;2728.3333;65535.0000;2749.6667;21.3333;0.0000;0.0000;0.0000;
475;1442.50;6932.42;2462.55;3311.6667;65535.0000;3288.0000;-23.6667;0.0000;0.0000;0.0000;
476;1443.36;6928.27;2466.69;2959.0000;65535.0000;2964.0000;5.0000;0.0000;0.0000;0.0000;
477;1444.22;6924.13;2470.83;3051.0000;65535.0000;3023.3333;-27.6667;0.0000;0.0000;0.0000;
478;1445.09;6920.00;2474.97;3300.0000;65535.0000;3302.0000;2.0000;0.0000;0.0000;0.0000;
479;1445.95;6915.87;2479.10;3184.6667;65535.0000;3134.6667;-50.0000;0.0000;0.0000;0.0000;
480;1446.81;6911.74;2483.22;3070.0000;65535.0000;3101.0000;31.0000;0.0000;0.0000;0.0000;
481;1447.68;6907.62;2487.35;3431.6667;65535.0000;3458.0000;26.3333;0.0000;0.0000;0.0000;
482;1448.54;6903.50;2491.47;3379.0000;65535.0000;3375.3333;-3.6667;0.0000;0.0000;0.0000;
483;1449.40;6899.38;2495.58;3431.6667;65535.0000;3431.0000;-0.6667;0.0000;0.0000;0.0000;
484;1450.27;6895.27;2499.69;3183.0000;65535.0000;3175.0000;-8.0000;0.0000;0.0000;0.0000;
485;1451.13;6891.16;2503.80;3443.6667;65535.0000;3449.6667;6.0000;0.0000;0.0000;0.0000;
486;   ;   ;   ;3521.3333;65535.0000;3505.6667;-15.6667;0.0000;0.0000;0.0000;
487;   ;   ;   ;3555.6667;65535.0000;3545.0000;-10.6667;0.0000;0.0000;0.0000;
488;   ;   ;   ;3267.3333;65535.0000;3248.3333;-19.0000;0.0000;0.0000;0.0000;
489;   ;   ;   ;3205.6667;65535.0000;3201.3333;-4.3333;0.0000;0.0000;0.0000;
490;   ;   ;   ;3573.0000;65535.0000;3598.6667;25.6667;0.0000;0.0000;0.0000;
491;   ;   ;   ;3475.0000;65535.0000;3472.6667;-2.3333;0.0000;0.0000;0.0000;
492;   ;   ;   ;3175.0000;65535.0000;3188.3333;13.3333;0.0000;0.0000;0.0000;
493;   ;   ;   ;3558.6667;65535.0000;3534.6667;-24.0000;0.0000;0.0000;0.0000;
494;   ;   ;   ;3246.3333;65535.0000;3291.6667;45.3333;0.0000;0.0000;0.0000;
495;   ;   ;   ;3357.6667;65535.0000;3343.0000;-14.6667;0.0000;0.0000;0.0000;
496;   ;   ;   ;2835.0000;65535.0000;2811.0000;-24.0000;0.0000;0.0000;0.0000;
497;   ;   ;   ;3619.3333;65535.0000;3600.0000;-19.3333;0.0000;0.0000;0.0000;
498;   ;   ;   ;2862.6667;65535.0000;2852.3333;-10.3333;0.0000;0.0000;0.0000;
499;   ;   ;   ;3136.0000;65535.0000;3141.0000;5.0000;0.0000;0.0000;0.0000;
500;   ;   ;   ;3143.3333;65535.0000;3138.6667;-4.6667;0.0000;0.0000;0.0000;
501;   ;   ;   ;3136.3333;65535.0000;3140.6667;4.3333;0.0000;0.0000;0.0000;
502;   ;   ;   ;3134.0000;65535.0000;3158.0000;24.0000;0.0000;0.0000;0.0000;
503;   ;   ;   ;3516.3333;65535.0000;3485.0000;-31.3333;0.0000;0.0000;0.0000;
504;   ;   ;   ;3414.0000;65535.0000;3410.0000;-4.0000;0.0000;0.0000;0.0000;
505;   ;   ;   ;3310.6667;65535.0000;3296.6667;-14.0000;0.0000;0.0000;0.0000;
506;   ;   ;   ;3044.3333;65535.0000;3031.3333;-13.0000;0.0000;0.0000;0.0000;
507;   ;   ;   ;3188.6667;65535.0000;3152.6667;-36.0000;0.0000;0.0000;0.0000;
508;   ;   ;   ;2619.6667;65535.0000;2629.6667;10.0000;0.0000;0.0000;0.0000;
509;   ;   ;   ;3027.3333;65535.0000;3014.6667;-12.6667;0.0000;0.0000;0.0000;
510;   ;   ;   ;3225.0000;65535.0000;3222.3333;-2.6667;0.0000;0.0000;0.0000;
511;   ;   ;   ;3640.3333;65535.0000;3618.6667;-21.6667;0.0000;0.0000;0.0000;
