File Version;BWSpec4.03_23_C
Date;2016-12-02 16:24:06
title;OOQ
model;BTC264P-1064S-512-SY
c code;OOQ
operator;
port1;0
baud1;3
pixel_start;0
pixel_end;511
step;1
units;3
bkcolor;16777215
show_mode;3
data_mode;0
pixel_mode;0
intigration times(ms);10000
average number;3
time_multiply;1
spectrometer_type ;69
yaxis;1
yaxis_min;0
yaxis_max;65535
xaxis;1
xaxis_min;57
xaxis_max;485
irrands_DispWLMin;100
irrands_DispWLMax;1000
yaxis_min_6;0
yaxis_max_6;0
irradiance_unit;0
Color_Data_Flag;0
Color_StartWL;1047
Color_EndWL;1047
Color_IncWL;10
power_unit_index;3
photometric_index;0
Illuminant_index;3
observer_index;0
lab_l;0
lab_a;0
lab_b;0
radiometric_flag;0
coefs_a0;1046.24128246353
coefs_a1;0.823573912287285
coefs_a2;-1.46846754231925E-05
coefs_a3;7.81270546723139E-08
coefs_b0;-1068.71157857918
coefs_b1;0.657654928142611
coefs_b2;0.000510871962843009
coefs_b3;-1.55922148884732E-07
coefs_r0;1
coefs_r1;0
coefs_r2;0
coefs_r3;0
coefs_j0;1
coefs_j1;0
coefs_j2;0
coefs_j3;0
enable_coefs_r;0
all_data_save;1
select_option;-1
interval_time;10000
pixel_num;512
sel_pixel_start;1
sel_pixel_end;511
sel_pixel_delta;1
dark_compensate;0
dark_compensate_value_1;0
dark_compensate_value_2;0
dark_compensate_value_3;0
monitor pixel_0;0
monitor pixel_1;0
monitor pixel_2;0
monitor pixel_3;0
monitor pixel_4;0
monitor pixel_5;0
vertical_select_flag;0
vertical_line3;44
vertical_line4;44
vertical_line3_wv;349.610890369397
vertical_line4_wv;349.610890369397
vertical_line_flag;0
vertical_line_ratio;0
laser_wavelength;1064.4
laser_powerlevel;100
overlay_js;0
Relative Intensity Correction Flag;0
Pixel;Wavelength;Wavenumber;Raman Shift;Dark;Reference;Raw data #1;Dark Subtracted #1;%TR #1;Absorbance #1;Irradiance (lumen) #1;
0;   ;   ;   ;3137.0000;65535.0000;3140.3333;3.3333;0.0000;0.0000;0.0000;
1;   ;   ;   ;3377.0000;65535.0000;3391.0000;14.0000;0.0000;0.0000;0.0000;
2;   ;   ;   ;3160.6667;65535.0000;3172.0000;11.3333;0.0000;0.0000;0.0000;
3;   ;   ;   ;3293.0000;65535.0000;3291.6667;-1.3333;0.0000;0.0000;0.0000;
4;   ;   ;   ;3139.6667;65535.0000;3115.6667;-24.0000;0.0000;0.0000;0.0000;
5;   ;   ;   ;3453.3333;65535.0000;3492.3333;39.0000;0.0000;0.0000;0.0000;
6;   ;   ;   ;2664.6667;65535.0000;2679.0000;14.3333;0.0000;0.0000;0.0000;
7;   ;   ;   ;3408.0000;65535.0000;3442.6667;34.6667;0.0000;0.0000;0.0000;
8;   ;   ;   ;2586.3333;65535.0000;2615.3333;29.0000;0.0000;0.0000;0.0000;
9;   ;   ;   ;3360.3333;65535.0000;3361.6667;1.3333;0.0000;0.0000;0.0000;
10;   ;   ;   ;3313.0000;65535.0000;3307.0000;-6.0000;0.0000;0.0000;0.0000;
11;   ;   ;   ;3186.6667;65535.0000;3169.3333;-17.3333;0.0000;0.0000;0.0000;
12;   ;   ;   ;3027.3333;65535.0000;3022.6667;-4.6667;0.0000;0.0000;0.0000;
13;   ;   ;   ;3168.3333;65535.0000;3200.0000;31.6667;0.0000;0.0000;0.0000;
14;   ;   ;   ;3145.6667;65535.0000;3159.6667;14.0000;0.0000;0.0000;0.0000;
15;   ;   ;   ;3302.0000;65535.0000;3344.3333;42.3333;0.0000;0.0000;0.0000;
16;   ;   ;   ;3404.0000;65535.0000;3402.6667;-1.3333;0.0000;0.0000;0.0000;
17;   ;   ;   ;3091.0000;65535.0000;3097.6667;6.6667;0.0000;0.0000;0.0000;
18;   ;   ;   ;2895.3333;65535.0000;2938.0000;42.6667;0.0000;0.0000;0.0000;
19;   ;   ;   ;3830.0000;65535.0000;3968.3333;138.3333;0.0000;0.0000;0.0000;
20;   ;   ;   ;3322.6667;65535.0000;4627.0000;1304.3333;0.0000;0.0000;0.0000;
21;   ;   ;   ;3072.0000;65535.0000;7031.3333;3959.3333;0.0000;0.0000;0.0000;
22;   ;   ;   ;3274.0000;65535.0000;7193.0000;3919.0000;0.0000;0.0000;0.0000;
23;   ;   ;   ;3301.6667;65535.0000;5720.3333;2418.6667;0.0000;0.0000;0.0000;
24;   ;   ;   ;2518.6667;65535.0000;2794.6667;276.0000;0.0000;0.0000;0.0000;
25;   ;   ;   ;3513.3333;65535.0000;3567.3333;54.0000;0.0000;0.0000;0.0000;
26;   ;   ;   ;2926.6667;65535.0000;2918.0000;-8.6667;0.0000;0.0000;0.0000;
27;   ;   ;   ;3345.3333;65535.0000;3340.3333;-5.0000;0.0000;0.0000;0.0000;
28;   ;   ;   ;2935.6667;65535.0000;2960.0000;24.3333;0.0000;0.0000;0.0000;
29;   ;   ;   ;3355.0000;65535.0000;3384.3333;29.3333;0.0000;0.0000;0.0000;
30;   ;   ;   ;2961.0000;65535.0000;3089.6667;128.6667;0.0000;0.0000;0.0000;
31;   ;   ;   ;3237.6667;65535.0000;3746.6667;509.0000;0.0000;0.0000;0.0000;
32;   ;   ;   ;3238.0000;65535.0000;4688.0000;1450.0000;0.0000;0.0000;0.0000;
33;   ;   ;   ;3412.3333;65535.0000;5773.0000;2360.6667;0.0000;0.0000;0.0000;
34;   ;   ;   ;3061.0000;65535.0000;5949.6667;2888.6667;0.0000;0.0000;0.0000;
35;   ;   ;   ;3681.6667;65535.0000;6596.0000;2914.3333;0.0000;0.0000;0.0000;
36;   ;   ;   ;3126.6667;65535.0000;5901.0000;2774.3333;0.0000;0.0000;0.0000;
37;   ;   ;   ;3603.3333;65535.0000;6115.6667;2512.3333;0.0000;0.0000;0.0000;
38;   ;   ;   ;3245.0000;65535.0000;5551.6667;2306.6667;0.0000;0.0000;0.0000;
39;   ;   ;   ;3253.3333;65535.0000;5334.3333;2081.0000;0.0000;0.0000;0.0000;
40;   ;   ;   ;3189.0000;65535.0000;5160.3333;1971.3333;0.0000;0.0000;0.0000;
41;   ;   ;   ;3548.0000;65535.0000;5348.6667;1800.6667;0.0000;0.0000;0.0000;
42;   ;   ;   ;3670.0000;65535.0000;5349.3333;1679.3333;0.0000;0.0000;0.0000;
43;   ;   ;   ;3116.6667;65535.0000;4637.3333;1520.6667;0.0000;0.0000;0.0000;
44;   ;   ;   ;3400.0000;65535.0000;4890.6667;1490.6667;0.0000;0.0000;0.0000;
45;   ;   ;   ;3187.0000;65535.0000;4514.0000;1327.0000;0.0000;0.0000;0.0000;
46;   ;   ;   ;3375.0000;65535.0000;4574.6667;1199.6667;0.0000;0.0000;0.0000;
47;   ;   ;   ;3553.3333;65535.0000;4656.0000;1102.6667;0.0000;0.0000;0.0000;
48;   ;   ;   ;3205.6667;65535.0000;4221.0000;1015.3333;0.0000;0.0000;0.0000;
49;   ;   ;   ;3209.0000;65535.0000;4196.0000;987.0000;0.0000;0.0000;0.0000;
50;   ;   ;   ;3217.6667;65535.0000;4121.3333;903.6667;0.0000;0.0000;0.0000;
51;   ;   ;   ;3490.3333;65535.0000;4385.3333;895.0000;0.0000;0.0000;0.0000;
52;   ;   ;   ;3348.0000;65535.0000;4205.6667;857.6667;0.0000;0.0000;0.0000;
53;   ;   ;   ;3203.3333;65535.0000;3953.0000;749.6667;0.0000;0.0000;0.0000;
54;   ;   ;   ;2726.3333;65535.0000;3472.0000;745.6667;0.0000;0.0000;0.0000;
55;   ;   ;   ;3265.3333;65535.0000;3954.6667;689.3333;0.0000;0.0000;0.0000;
56;   ;   ;   ;3559.6667;65535.0000;4203.3333;643.6667;0.0000;0.0000;0.0000;
57;1093.15;9147.86;247.10;3654.0000;65535.0000;4268.0000;614.0000;0.0000;0.0000;0.0000;
58;1093.97;9140.98;253.98;3111.3333;65535.0000;3736.6667;625.3333;0.0000;0.0000;0.0000;
59;1094.80;9134.11;260.85;3490.6667;65535.0000;4055.0000;564.3333;0.0000;0.0000;0.0000;
60;1095.62;9127.25;267.71;3354.0000;65535.0000;3935.3333;581.3333;0.0000;0.0000;0.0000;
61;1096.44;9120.41;274.56;3065.3333;65535.0000;3612.0000;546.6667;0.0000;0.0000;0.0000;
62;1097.27;9113.57;281.40;3310.3333;65535.0000;3854.6667;544.3333;0.0000;0.0000;0.0000;
63;1098.09;9106.74;288.22;3696.0000;65535.0000;4181.0000;485.0000;0.0000;0.0000;0.0000;
64;1098.91;9099.92;295.04;3199.0000;65535.0000;3686.6667;487.6667;0.0000;0.0000;0.0000;
65;1099.73;9093.12;301.85;3139.3333;65535.0000;3629.3333;490.0000;0.0000;0.0000;0.0000;
66;1100.56;9086.32;308.65;3284.3333;65535.0000;3769.6667;485.3333;0.0000;0.0000;0.0000;
67;1101.38;9079.53;315.43;3654.3333;65535.0000;4089.0000;434.6667;0.0000;0.0000;0.0000;
68;1102.20;9072.76;322.21;3092.3333;65535.0000;3525.3333;433.0000;0.0000;0.0000;0.0000;
69;1103.02;9065.99;328.98;3572.6667;65535.0000;3967.0000;394.3333;0.0000;0.0000;0.0000;
70;1103.85;9059.23;335.73;3169.3333;65535.0000;3590.0000;420.6667;0.0000;0.0000;0.0000;
71;1104.67;9052.49;342.48;3658.3333;65535.0000;4070.6667;412.3333;0.0000;0.0000;0.0000;
72;1105.49;9045.75;349.22;3288.6667;65535.0000;3673.0000;384.3333;0.0000;0.0000;0.0000;
73;1106.31;9039.02;355.94;3741.0000;65535.0000;4133.0000;392.0000;0.0000;0.0000;0.0000;
74;1107.14;9032.31;362.66;3134.0000;65535.0000;3467.3333;333.3333;0.0000;0.0000;0.0000;
75;1107.96;9025.60;369.37;3377.6667;65535.0000;3762.6667;385.0000;0.0000;0.0000;0.0000;
76;1108.78;9018.90;376.06;3302.3333;65535.0000;3656.6667;354.3333;0.0000;0.0000;0.0000;
77;1109.61;9012.22;382.75;3337.6667;65535.0000;3700.6667;363.0000;0.0000;0.0000;0.0000;
78;1110.43;9005.54;389.43;3433.0000;65535.0000;3792.3333;359.3333;0.0000;0.0000;0.0000;
79;1111.25;8998.87;396.09;3830.6667;65535.0000;4264.6667;434.0000;0.0000;0.0000;0.0000;
80;1112.07;8992.21;402.75;3276.6667;65535.0000;3664.6667;388.0000;0.0000;0.0000;0.0000;
81;1112.90;8985.57;409.40;3394.3333;65535.0000;3784.3333;390.0000;0.0000;0.0000;0.0000;
82;1113.72;8978.93;416.04;3133.3333;65535.0000;3513.0000;379.6667;0.0000;0.0000;0.0000;
83;1114.54;8972.30;422.66;3682.0000;65535.0000;4064.3333;382.3333;0.0000;0.0000;0.0000;
84;1115.36;8965.68;429.28;3308.0000;65535.0000;3694.3333;386.3333;0.0000;0.0000;0.0000;
85;1116.19;8959.07;435.89;3689.3333;65535.0000;4085.6667;396.3333;0.0000;0.0000;0.0000;
86;1117.01;8952.47;442.49;3406.3333;65535.0000;3757.6667;351.3333;0.0000;0.0000;0.0000;
87;1117.83;8945.88;449.08;3319.6667;65535.0000;3685.6667;366.0000;0.0000;0.0000;0.0000;
88;1118.66;8939.30;455.66;3076.0000;65535.0000;3415.3333;339.3333;0.0000;0.0000;0.0000;
89;1119.48;8932.73;462.23;3223.6667;65535.0000;3539.3333;315.6667;0.0000;0.0000;0.0000;
90;1120.30;8926.17;468.79;2957.3333;65535.0000;3268.0000;310.6667;0.0000;0.0000;0.0000;
91;1121.12;8919.62;475.34;3579.3333;65535.0000;3888.0000;308.6667;0.0000;0.0000;0.0000;
92;1121.95;8913.08;481.88;3569.0000;65535.0000;3886.6667;317.6667;0.0000;0.0000;0.0000;
93;1122.77;8906.55;488.42;3585.3333;65535.0000;3890.0000;304.6667;0.0000;0.0000;0.0000;
94;1123.59;8900.02;494.94;2978.6667;65535.0000;3273.3333;294.6667;0.0000;0.0000;0.0000;
95;1124.42;8893.51;501.45;3751.3333;65535.0000;4092.3333;341.0000;0.0000;0.0000;0.0000;
96;1125.24;8887.01;507.96;3495.3333;65535.0000;3786.0000;290.6667;0.0000;0.0000;0.0000;
97;1126.06;8880.51;514.45;3746.3333;65535.0000;4048.3333;302.0000;0.0000;0.0000;0.0000;
98;1126.88;8874.03;520.94;3129.3333;65535.0000;3470.0000;340.6667;0.0000;0.0000;0.0000;
99;1127.71;8867.55;527.41;3425.6667;65535.0000;3734.6667;309.0000;0.0000;0.0000;0.0000;
100;1128.53;8861.09;533.88;3145.0000;65535.0000;3534.3333;389.3333;0.0000;0.0000;0.0000;
101;1129.35;8854.63;540.34;3376.0000;65535.0000;3744.0000;368.0000;0.0000;0.0000;0.0000;
102;1130.18;8848.18;546.78;2810.6667;65535.0000;3100.3333;289.6667;0.0000;0.0000;0.0000;
103;1131.00;8841.74;553.22;3226.6667;65535.0000;3568.0000;341.3333;0.0000;0.0000;0.0000;
104;1131.82;8835.31;559.65;3132.3333;65535.0000;3421.6667;289.3333;0.0000;0.0000;0.0000;
105;1132.65;8828.89;566.07;3611.3333;65535.0000;3939.0000;327.6667;0.0000;0.0000;0.0000;
106;1133.47;8822.48;572.48;2775.6667;65535.0000;3097.3333;321.6667;0.0000;0.0000;0.0000;
107;1134.29;8816.08;578.89;3352.0000;65535.0000;3598.6667;246.6667;0.0000;0.0000;0.0000;
108;1135.11;8809.68;585.28;3171.0000;65535.0000;3466.0000;295.0000;0.0000;0.0000;0.0000;
109;1135.94;8803.30;591.66;2758.3333;65535.0000;3003.6667;245.3333;0.0000;0.0000;0.0000;
110;1136.76;8796.93;598.04;3314.0000;65535.0000;3564.6667;250.6667;0.0000;0.0000;0.0000;
111;1137.58;8790.56;604.40;3601.6667;65535.0000;3916.3333;314.6667;0.0000;0.0000;0.0000;
112;1138.41;8784.20;610.76;3429.0000;65535.0000;3712.3333;283.3333;0.0000;0.0000;0.0000;
113;1139.23;8777.86;617.11;3240.0000;65535.0000;3512.3333;272.3333;0.0000;0.0000;0.0000;
114;1140.05;8771.52;623.45;3464.3333;65535.0000;3705.6667;241.3333;0.0000;0.0000;0.0000;
115;1140.88;8765.19;629.78;3603.6667;65535.0000;3848.3333;244.6667;0.0000;0.0000;0.0000;
116;1141.70;8758.87;636.10;3140.0000;65535.0000;3413.6667;273.6667;0.0000;0.0000;0.0000;
117;1142.52;8752.55;642.41;3455.3333;65535.0000;3692.0000;236.6667;0.0000;0.0000;0.0000;
118;1143.35;8746.25;648.71;2979.3333;65535.0000;3189.0000;209.6667;0.0000;0.0000;0.0000;
119;1144.17;8739.96;655.01;3760.3333;65535.0000;3989.0000;228.6667;0.0000;0.0000;0.0000;
120;1144.99;8733.67;661.29;3454.3333;65535.0000;3683.0000;228.6667;0.0000;0.0000;0.0000;
121;1145.82;8727.40;667.57;3678.0000;65535.0000;3947.3333;269.3333;0.0000;0.0000;0.0000;
122;1146.64;8721.13;673.84;3249.0000;65535.0000;3496.0000;247.0000;0.0000;0.0000;0.0000;
123;1147.46;8714.87;680.09;3577.6667;65535.0000;3792.3333;214.6667;0.0000;0.0000;0.0000;
124;1148.29;8708.62;686.34;3152.3333;65535.0000;3382.3333;230.0000;0.0000;0.0000;0.0000;
125;1149.11;8702.38;692.59;3688.0000;65535.0000;3919.3333;231.3333;0.0000;0.0000;0.0000;
126;1149.93;8696.15;698.82;3123.6667;65535.0000;3380.3333;256.6667;0.0000;0.0000;0.0000;
127;1150.76;8689.92;705.04;3580.3333;65535.0000;3845.6667;265.3333;0.0000;0.0000;0.0000;
128;1151.58;8683.71;711.26;3021.3333;65535.0000;3300.3333;279.0000;0.0000;0.0000;0.0000;
129;1152.41;8677.50;717.46;3615.6667;65535.0000;3951.0000;335.3333;0.0000;0.0000;0.0000;
130;1153.23;8671.30;723.66;3509.6667;65535.0000;3774.3333;264.6667;0.0000;0.0000;0.0000;
131;1154.05;8665.11;729.85;3565.6667;65535.0000;3857.6667;292.0000;0.0000;0.0000;0.0000;
132;1154.88;8658.93;736.03;3655.0000;65535.0000;3998.3333;343.3333;0.0000;0.0000;0.0000;
133;1155.70;8652.76;742.20;3523.6667;65535.0000;3782.0000;258.3333;0.0000;0.0000;0.0000;
134;1156.52;8646.60;748.37;3321.6667;65535.0000;3593.3333;271.6667;0.0000;0.0000;0.0000;
135;1157.35;8640.44;754.52;3672.3333;65535.0000;3954.0000;281.6667;0.0000;0.0000;0.0000;
136;1158.17;8634.29;760.67;3330.6667;65535.0000;3600.3333;269.6667;0.0000;0.0000;0.0000;
137;1159.00;8628.16;766.81;3575.0000;65535.0000;3882.6667;307.6667;0.0000;0.0000;0.0000;
138;1159.82;8622.03;772.94;3510.3333;65535.0000;3775.3333;265.0000;0.0000;0.0000;0.0000;
139;1160.64;8615.91;779.06;3526.6667;65535.0000;3802.3333;275.6667;0.0000;0.0000;0.0000;
140;1161.47;8609.79;785.17;3607.0000;65535.0000;3863.0000;256.0000;0.0000;0.0000;0.0000;
141;1162.29;8603.69;791.28;3391.6667;65535.0000;3667.0000;275.3333;0.0000;0.0000;0.0000;
142;1163.12;8597.59;797.37;3210.3333;65535.0000;3451.6667;241.3333;0.0000;0.0000;0.0000;
143;1163.94;8591.50;803.46;3586.6667;65535.0000;3868.0000;281.3333;0.0000;0.0000;0.0000;
144;1164.76;8585.42;809.54;3337.0000;65535.0000;3640.6667;303.6667;0.0000;0.0000;0.0000;
145;1165.59;8579.35;815.61;3886.3333;65535.0000;4185.0000;298.6667;0.0000;0.0000;0.0000;
146;1166.41;8573.29;821.67;3415.0000;65535.0000;3727.3333;312.3333;0.0000;0.0000;0.0000;
147;1167.24;8567.24;827.73;3211.6667;65535.0000;3514.0000;302.3333;0.0000;0.0000;0.0000;
148;1168.06;8561.19;833.77;3571.0000;65535.0000;3865.3333;294.3333;0.0000;0.0000;0.0000;
149;1168.89;8555.15;839.81;3151.6667;65535.0000;3456.3333;304.6667;0.0000;0.0000;0.0000;
150;1169.71;8549.12;845.84;3074.3333;65535.0000;3460.6667;386.3333;0.0000;0.0000;0.0000;
151;1170.54;8543.10;851.86;3175.0000;65535.0000;3580.0000;405.0000;0.0000;0.0000;0.0000;
152;1171.36;8537.09;857.88;3618.0000;65535.0000;4071.3333;453.3333;0.0000;0.0000;0.0000;
153;1172.18;8531.08;863.88;3518.3333;65535.0000;3959.3333;441.0000;0.0000;0.0000;0.0000;
154;1173.01;8525.09;869.88;2969.3333;65535.0000;3391.6667;422.3333;0.0000;0.0000;0.0000;
155;1173.83;8519.10;875.87;3423.3333;65535.0000;3861.0000;437.6667;0.0000;0.0000;0.0000;
156;1174.66;8513.12;881.85;3580.0000;65535.0000;3959.3333;379.3333;0.0000;0.0000;0.0000;
157;1175.48;8507.14;887.82;3629.6667;65535.0000;3986.3333;356.6667;0.0000;0.0000;0.0000;
158;1176.31;8501.18;893.79;3154.0000;65535.0000;3509.3333;355.3333;0.0000;0.0000;0.0000;
159;1177.13;8495.22;899.74;3623.0000;65535.0000;3944.0000;321.0000;0.0000;0.0000;0.0000;
160;1177.96;8489.27;905.69;2746.6667;65535.0000;3086.0000;339.3333;0.0000;0.0000;0.0000;
161;1178.78;8483.33;911.63;3536.0000;65535.0000;3904.6667;368.6667;0.0000;0.0000;0.0000;
162;1179.61;8477.40;917.56;3153.0000;65535.0000;3530.6667;377.6667;0.0000;0.0000;0.0000;
163;1180.43;8471.47;923.49;3446.0000;65535.0000;3886.0000;440.0000;0.0000;0.0000;0.0000;
164;1181.26;8465.56;929.41;3096.3333;65535.0000;3538.3333;442.0000;0.0000;0.0000;0.0000;
165;1182.08;8459.65;935.32;3440.3333;65535.0000;3877.6667;437.3333;0.0000;0.0000;0.0000;
166;1182.91;8453.75;941.22;3262.3333;65535.0000;3711.6667;449.3333;0.0000;0.0000;0.0000;
167;1183.73;8447.85;947.11;3196.0000;65535.0000;3678.6667;482.6667;0.0000;0.0000;0.0000;
168;1184.56;8441.97;952.99;3423.3333;65535.0000;3835.3333;412.0000;0.0000;0.0000;0.0000;
169;1185.38;8436.09;958.87;3537.0000;65535.0000;3892.3333;355.3333;0.0000;0.0000;0.0000;
170;1186.21;8430.22;964.74;3371.0000;65535.0000;3779.6667;408.6667;0.0000;0.0000;0.0000;
171;1187.03;8424.36;970.60;3657.6667;65535.0000;4008.3333;350.6667;0.0000;0.0000;0.0000;
172;1187.86;8418.51;976.46;3413.6667;65535.0000;3713.3333;299.6667;0.0000;0.0000;0.0000;
173;1188.68;8412.66;982.30;3612.6667;65535.0000;3895.0000;282.3333;0.0000;0.0000;0.0000;
174;1189.51;8406.82;988.14;3252.6667;65535.0000;3558.3333;305.6667;0.0000;0.0000;0.0000;
175;1190.34;8400.99;993.97;3329.6667;65535.0000;3661.0000;331.3333;0.0000;0.0000;0.0000;
176;1191.16;8395.17;999.80;3321.3333;65535.0000;3675.0000;353.6667;0.0000;0.0000;0.0000;
177;1191.99;8389.35;1005.61;3373.0000;65535.0000;3787.6667;414.6667;0.0000;0.0000;0.0000;
178;1192.81;8383.55;1011.42;2861.3333;65535.0000;3197.0000;335.6667;0.0000;0.0000;0.0000;
179;1193.64;8377.75;1017.22;3815.3333;65535.0000;4139.0000;323.6667;0.0000;0.0000;0.0000;
180;1194.46;8371.95;1023.01;3418.0000;65535.0000;3744.0000;326.0000;0.0000;0.0000;0.0000;
181;1195.29;8366.17;1028.80;3812.0000;65535.0000;4127.6667;315.6667;0.0000;0.0000;0.0000;
182;1196.12;8360.39;1034.57;3582.3333;65535.0000;3914.3333;332.0000;0.0000;0.0000;0.0000;
183;1196.94;8354.62;1040.34;3083.0000;65535.0000;3432.0000;349.0000;0.0000;0.0000;0.0000;
184;1197.77;8348.86;1046.10;3489.0000;65535.0000;3832.3333;343.3333;0.0000;0.0000;0.0000;
185;1198.59;8343.10;1051.86;3534.3333;65535.0000;3909.3333;375.0000;0.0000;0.0000;0.0000;
186;1199.42;8337.36;1057.61;2779.3333;65535.0000;3133.3333;354.0000;0.0000;0.0000;0.0000;
187;1200.25;8331.62;1063.35;3295.6667;65535.0000;3635.3333;339.6667;0.0000;0.0000;0.0000;
188;1201.07;8325.89;1069.08;3420.0000;65535.0000;3741.3333;321.3333;0.0000;0.0000;0.0000;
189;1201.90;8320.16;1074.80;2924.3333;65535.0000;3208.0000;283.6667;0.0000;0.0000;0.0000;
190;1202.73;8314.45;1080.52;3127.3333;65535.0000;3426.6667;299.3333;0.0000;0.0000;0.0000;
191;1203.55;8308.74;1086.23;3590.3333;65535.0000;3979.0000;388.6667;0.0000;0.0000;0.0000;
192;1204.38;8303.03;1091.93;2831.0000;65535.0000;3203.6667;372.6667;0.0000;0.0000;0.0000;
193;1205.21;8297.34;1097.63;3277.6667;65535.0000;3640.3333;362.6667;0.0000;0.0000;0.0000;
194;1206.03;8291.65;1103.31;3217.0000;65535.0000;3543.6667;326.6667;0.0000;0.0000;0.0000;
195;1206.86;8285.97;1108.99;3482.0000;65535.0000;3767.3333;285.3333;0.0000;0.0000;0.0000;
196;1207.69;8280.30;1114.67;3259.3333;65535.0000;3490.3333;231.0000;0.0000;0.0000;0.0000;
197;1208.51;8274.63;1120.33;3140.3333;65535.0000;3406.3333;266.0000;0.0000;0.0000;0.0000;
198;1209.34;8268.98;1125.99;3132.0000;65535.0000;3406.0000;274.0000;0.0000;0.0000;0.0000;
199;1210.17;8263.32;1131.64;3535.0000;65535.0000;3785.0000;250.0000;0.0000;0.0000;0.0000;
200;1210.99;8257.68;1137.28;3474.3333;65535.0000;3686.6667;212.3333;0.0000;0.0000;0.0000;
201;1211.82;8252.05;1142.92;3714.3333;65535.0000;3926.3333;212.0000;0.0000;0.0000;0.0000;
202;1212.65;8246.42;1148.55;3087.0000;65535.0000;3342.6667;255.6667;0.0000;0.0000;0.0000;
203;1213.48;8240.79;1154.17;3455.6667;65535.0000;3671.3333;215.6667;0.0000;0.0000;0.0000;
204;1214.30;8235.18;1159.78;3463.6667;65535.0000;3716.6667;253.0000;0.0000;0.0000;0.0000;
205;1215.13;8229.57;1165.39;3574.6667;65535.0000;3776.6667;202.0000;0.0000;0.0000;0.0000;
206;1215.96;8223.97;1170.99;3119.3333;65535.0000;3332.0000;212.6667;0.0000;0.0000;0.0000;
207;1216.78;8218.38;1176.58;3319.3333;65535.0000;3565.3333;246.0000;0.0000;0.0000;0.0000;
208;1217.61;8212.79;1182.17;3145.6667;65535.0000;3361.6667;216.0000;0.0000;0.0000;0.0000;
209;1218.44;8207.22;1187.75;3440.6667;65535.0000;3640.6667;200.0000;0.0000;0.0000;0.0000;
210;1219.27;8201.64;1193.32;3162.0000;65535.0000;3353.0000;191.0000;0.0000;0.0000;0.0000;
211;1220.10;8196.08;1198.88;3408.0000;65535.0000;3649.3333;241.3333;0.0000;0.0000;0.0000;
212;1220.92;8190.52;1204.44;2706.3333;65535.0000;2955.3333;249.0000;0.0000;0.0000;0.0000;
213;1221.75;8184.97;1209.99;3883.6667;65535.0000;4118.0000;234.3333;0.0000;0.0000;0.0000;
214;1222.58;8179.43;1215.54;3267.3333;65535.0000;3513.6667;246.3333;0.0000;0.0000;0.0000;
215;1223.41;8173.89;1221.07;3593.0000;65535.0000;3805.6667;212.6667;0.0000;0.0000;0.0000;
216;1224.24;8168.36;1226.60;3502.0000;65535.0000;3770.0000;268.0000;0.0000;0.0000;0.0000;
217;1225.06;8162.84;1232.12;3444.6667;65535.0000;3737.0000;292.3333;0.0000;0.0000;0.0000;
218;1225.89;8157.33;1237.64;3014.0000;65535.0000;3356.0000;342.0000;0.0000;0.0000;0.0000;
219;1226.72;8151.82;1243.15;3436.0000;65535.0000;3830.6667;394.6667;0.0000;0.0000;0.0000;
220;1227.55;8146.32;1248.65;2957.6667;65535.0000;3352.0000;394.3333;0.0000;0.0000;0.0000;
221;1228.38;8140.82;1254.14;3351.6667;65535.0000;3722.3333;370.6667;0.0000;0.0000;0.0000;
222;1229.21;8135.33;1259.63;3447.6667;65535.0000;3815.6667;368.0000;0.0000;0.0000;0.0000;
223;1230.03;8129.85;1265.11;3089.0000;65535.0000;3445.6667;356.6667;0.0000;0.0000;0.0000;
224;1230.86;8124.38;1270.58;3473.6667;65535.0000;3858.6667;385.0000;0.0000;0.0000;0.0000;
225;1231.69;8118.91;1276.05;3291.0000;65535.0000;3681.3333;390.3333;0.0000;0.0000;0.0000;
226;1232.52;8113.45;1281.51;3464.0000;65535.0000;3812.6667;348.6667;0.0000;0.0000;0.0000;
227;1233.35;8108.00;1286.96;3412.6667;65535.0000;3780.6667;368.0000;0.0000;0.0000;0.0000;
228;1234.18;8102.55;1292.41;3340.3333;65535.0000;3712.0000;371.6667;0.0000;0.0000;0.0000;
229;1235.01;8097.11;1297.85;3663.3333;65535.0000;4006.0000;342.6667;0.0000;0.0000;0.0000;
230;1235.84;8091.68;1303.28;2956.6667;65535.0000;3312.0000;355.3333;0.0000;0.0000;0.0000;
231;1236.67;8086.26;1308.71;3789.0000;65535.0000;4102.0000;313.0000;0.0000;0.0000;0.0000;
232;1237.50;8080.84;1314.13;3395.0000;65535.0000;3764.0000;369.0000;0.0000;0.0000;0.0000;
233;1238.33;8075.42;1319.54;3022.0000;65535.0000;3312.0000;290.0000;0.0000;0.0000;0.0000;
234;1239.15;8070.02;1324.95;3452.0000;65535.0000;3754.3333;302.3333;0.0000;0.0000;0.0000;
235;1239.98;8064.62;1330.34;2947.3333;65535.0000;3253.6667;306.3333;0.0000;0.0000;0.0000;
236;1240.81;8059.23;1335.74;3641.0000;65535.0000;3972.0000;331.0000;0.0000;0.0000;0.0000;
237;1241.64;8053.84;1341.12;3488.3333;65535.0000;3792.6667;304.3333;0.0000;0.0000;0.0000;
238;1242.47;8048.46;1346.50;3315.0000;65535.0000;3625.0000;310.0000;0.0000;0.0000;0.0000;
239;1243.30;8043.09;1351.87;3561.3333;65535.0000;3839.3333;278.0000;0.0000;0.0000;0.0000;
240;1244.13;8037.72;1357.24;2865.3333;65535.0000;3097.0000;231.6667;0.0000;0.0000;0.0000;
241;1244.96;8032.37;1362.60;3008.6667;65535.0000;3234.6667;226.0000;0.0000;0.0000;0.0000;
242;1245.79;8027.01;1367.95;3265.0000;65535.0000;3421.3333;156.3333;0.0000;0.0000;0.0000;
243;1246.62;8021.67;1373.30;3567.0000;65535.0000;3766.3333;199.3333;0.0000;0.0000;0.0000;
244;1247.45;8016.33;1378.64;3319.3333;65535.0000;3513.6667;194.3333;0.0000;0.0000;0.0000;
245;1248.28;8010.99;1383.97;3402.3333;65535.0000;3645.3333;243.0000;0.0000;0.0000;0.0000;
246;1249.11;8005.67;1389.30;3436.3333;65535.0000;3656.6667;220.3333;0.0000;0.0000;0.0000;
247;1249.95;8000.35;1394.62;3536.6667;65535.0000;3746.3333;209.6667;0.0000;0.0000;0.0000;
248;1250.78;7995.04;1399.93;2985.3333;65535.0000;3204.3333;219.0000;0.0000;0.0000;0.0000;
249;1251.61;7989.73;1405.24;3350.6667;65535.0000;3561.6667;211.0000;0.0000;0.0000;0.0000;
250;1252.44;7984.43;1410.54;3112.0000;65535.0000;3345.0000;233.0000;0.0000;0.0000;0.0000;
251;1253.27;7979.14;1415.83;3570.6667;65535.0000;3796.3333;225.6667;0.0000;0.0000;0.0000;
252;1254.10;7973.85;1421.12;3284.6667;65535.0000;3566.6667;282.0000;0.0000;0.0000;0.0000;
253;1254.93;7968.57;1426.40;3753.3333;65535.0000;4035.6667;282.3333;0.0000;0.0000;0.0000;
254;1255.76;7963.29;1431.67;3547.3333;65535.0000;3879.0000;331.6667;0.0000;0.0000;0.0000;
255;1256.59;7958.02;1436.94;3485.3333;65535.0000;3871.0000;385.6667;0.0000;0.0000;0.0000;
256;1257.42;7952.76;1442.20;3152.6667;65535.0000;3579.0000;426.3333;0.0000;0.0000;0.0000;
257;1258.26;7947.51;1447.46;3585.6667;65535.0000;4081.6667;496.0000;0.0000;0.0000;0.0000;
258;1259.09;7942.26;1452.71;3295.3333;65535.0000;3778.6667;483.3333;0.0000;0.0000;0.0000;
259;1259.92;7937.02;1457.95;3431.0000;65535.0000;3912.6667;481.6667;0.0000;0.0000;0.0000;
260;1260.75;7931.78;1463.18;3565.6667;65535.0000;4011.0000;445.3333;0.0000;0.0000;0.0000;
261;1261.58;7926.55;1468.41;3260.6667;65535.0000;3639.0000;378.3333;0.0000;0.0000;0.0000;
262;1262.41;7921.33;1473.64;3440.6667;65535.0000;3725.3333;284.6667;0.0000;0.0000;0.0000;
263;1263.25;7916.11;1478.85;3559.6667;65535.0000;3786.6667;227.0000;0.0000;0.0000;0.0000;
264;1264.08;7910.90;1484.07;2942.0000;65535.0000;3120.6667;178.6667;0.0000;0.0000;0.0000;
265;1264.91;7905.69;1489.27;3516.0000;65535.0000;3638.3333;122.3333;0.0000;0.0000;0.0000;
266;1265.74;7900.50;1494.47;3411.6667;65535.0000;3540.3333;128.6667;0.0000;0.0000;0.0000;
267;1266.58;7895.30;1499.66;3412.6667;65535.0000;3520.3333;107.6667;0.0000;0.0000;0.0000;
268;1267.41;7890.12;1504.85;3389.0000;65535.0000;3495.6667;106.6667;0.0000;0.0000;0.0000;
269;1268.24;7884.94;1510.03;3197.6667;65535.0000;3306.0000;108.3333;0.0000;0.0000;0.0000;
270;1269.07;7879.76;1515.20;2878.0000;65535.0000;2993.0000;115.0000;0.0000;0.0000;0.0000;
271;1269.91;7874.60;1520.37;3390.3333;65535.0000;3507.6667;117.3333;0.0000;0.0000;0.0000;
272;1270.74;7869.44;1525.53;3038.0000;65535.0000;3139.3333;101.3333;0.0000;0.0000;0.0000;
273;1271.57;7864.28;1530.68;3664.3333;65535.0000;3782.6667;118.3333;0.0000;0.0000;0.0000;
274;1272.41;7859.13;1535.83;3237.3333;65535.0000;3320.6667;83.3333;0.0000;0.0000;0.0000;
275;1273.24;7853.99;1540.98;3511.3333;65535.0000;3572.6667;61.3333;0.0000;0.0000;0.0000;
276;1274.07;7848.85;1546.11;3114.3333;65535.0000;3201.6667;87.3333;0.0000;0.0000;0.0000;
277;1274.91;7843.72;1551.24;3098.6667;65535.0000;3170.0000;71.3333;0.0000;0.0000;0.0000;
278;1275.74;7838.60;1556.37;3613.3333;65535.0000;3717.3333;104.0000;0.0000;0.0000;0.0000;
279;1276.57;7833.48;1561.49;3724.6667;65535.0000;3830.3333;105.6667;0.0000;0.0000;0.0000;
280;1277.41;7828.37;1566.60;3385.3333;65535.0000;3484.3333;99.0000;0.0000;0.0000;0.0000;
281;1278.24;7823.26;1571.70;3430.3333;65535.0000;3550.6667;120.3333;0.0000;0.0000;0.0000;
282;1279.07;7818.16;1576.80;3179.6667;65535.0000;3352.6667;173.0000;0.0000;0.0000;0.0000;
283;1279.91;7813.07;1581.90;3372.0000;65535.0000;3487.3333;115.3333;0.0000;0.0000;0.0000;
284;1280.74;7807.98;1586.99;3349.0000;65535.0000;3491.3333;142.3333;0.0000;0.0000;0.0000;
285;1281.58;7802.89;1592.07;3225.3333;65535.0000;3318.3333;93.0000;0.0000;0.0000;0.0000;
286;1282.41;7797.82;1597.15;3621.6667;65535.0000;3720.3333;98.6667;0.0000;0.0000;0.0000;
287;1283.24;7792.75;1602.22;3439.3333;65535.0000;3593.3333;154.0000;0.0000;0.0000;0.0000;
288;1284.08;7787.68;1607.28;3320.0000;65535.0000;3473.0000;153.0000;0.0000;0.0000;0.0000;
289;1284.91;7782.63;1612.34;4198.6667;65535.0000;4316.3333;117.6667;0.0000;0.0000;0.0000;
290;1285.75;7777.57;1617.39;3471.0000;65535.0000;3664.0000;193.0000;0.0000;0.0000;0.0000;
291;1286.58;7772.53;1622.44;3516.6667;65535.0000;3695.6667;179.0000;0.0000;0.0000;0.0000;
292;1287.42;7767.49;1627.48;3428.6667;65535.0000;3662.6667;234.0000;0.0000;0.0000;0.0000;
293;1288.25;7762.45;1632.51;3031.6667;65535.0000;3240.6667;209.0000;0.0000;0.0000;0.0000;
294;1289.09;7757.42;1637.54;3228.6667;65535.0000;3498.6667;270.0000;0.0000;0.0000;0.0000;
295;1289.92;7752.40;1642.57;3355.6667;65535.0000;3587.6667;232.0000;0.0000;0.0000;0.0000;
296;1290.76;7747.38;1647.58;3393.3333;65535.0000;3679.0000;285.6667;0.0000;0.0000;0.0000;
297;1291.59;7742.37;1652.59;3655.0000;65535.0000;4014.6667;359.6667;0.0000;0.0000;0.0000;
298;1292.43;7737.36;1657.60;3231.0000;65535.0000;3559.0000;328.0000;0.0000;0.0000;0.0000;
299;1293.27;7732.36;1662.60;3759.3333;65535.0000;4080.0000;320.6667;0.0000;0.0000;0.0000;
300;1294.10;7727.37;1667.59;3229.0000;65535.0000;3573.0000;344.0000;0.0000;0.0000;0.0000;
301;1294.94;7722.38;1672.58;3485.6667;65535.0000;3797.0000;311.3333;0.0000;0.0000;0.0000;
302;1295.77;7717.40;1677.56;3313.0000;65535.0000;3586.6667;273.6667;0.0000;0.0000;0.0000;
303;1296.61;7712.42;1682.54;3255.0000;65535.0000;3486.3333;231.3333;0.0000;0.0000;0.0000;
304;1297.45;7707.45;1687.51;2856.6667;65535.0000;3040.0000;183.3333;0.0000;0.0000;0.0000;
305;1298.28;7702.49;1692.48;3067.3333;65535.0000;3268.6667;201.3333;0.0000;0.0000;0.0000;
306;1299.12;7697.53;1697.44;3605.6667;65535.0000;3738.3333;132.6667;0.0000;0.0000;0.0000;
307;1299.96;7692.57;1702.39;3752.0000;65535.0000;3852.0000;100.0000;0.0000;0.0000;0.0000;
308;1300.79;7687.63;1707.34;3600.0000;65535.0000;3703.6667;103.6667;0.0000;0.0000;0.0000;
309;1301.63;7682.68;1712.28;3390.0000;65535.0000;3451.0000;61.0000;0.0000;0.0000;0.0000;
310;1302.47;7677.75;1717.22;3301.3333;65535.0000;3354.3333;53.0000;0.0000;0.0000;0.0000;
311;1303.30;7672.82;1722.15;3558.0000;65535.0000;3621.0000;63.0000;0.0000;0.0000;0.0000;
312;1304.14;7667.89;1727.07;3475.0000;65535.0000;3559.6667;84.6667;0.0000;0.0000;0.0000;
313;1304.98;7662.97;1731.99;3816.6667;65535.0000;3874.0000;57.3333;0.0000;0.0000;0.0000;
314;1305.81;7658.06;1736.91;3589.3333;65535.0000;3677.3333;88.0000;0.0000;0.0000;0.0000;
315;1306.65;7653.15;1741.82;3692.3333;65535.0000;3782.6667;90.3333;0.0000;0.0000;0.0000;
316;1307.49;7648.24;1746.72;3594.6667;65535.0000;3643.0000;48.3333;0.0000;0.0000;0.0000;
317;1308.33;7643.35;1751.62;3257.0000;65535.0000;3326.6667;69.6667;0.0000;0.0000;0.0000;
318;1309.17;7638.46;1756.51;2986.3333;65535.0000;3076.6667;90.3333;0.0000;0.0000;0.0000;
319;1310.00;7633.57;1761.40;3294.0000;65535.0000;3319.3333;25.3333;0.0000;0.0000;0.0000;
320;1310.84;7628.69;1766.28;3504.6667;65535.0000;3548.3333;43.6667;0.0000;0.0000;0.0000;
321;1311.68;7623.81;1771.15;3684.3333;65535.0000;3729.3333;45.0000;0.0000;0.0000;0.0000;
322;1312.52;7618.94;1776.02;3501.6667;65535.0000;3554.3333;52.6667;0.0000;0.0000;0.0000;
323;1313.36;7614.08;1780.88;3476.0000;65535.0000;3523.6667;47.6667;0.0000;0.0000;0.0000;
324;1314.19;7609.22;1785.74;3165.0000;65535.0000;3186.0000;21.0000;0.0000;0.0000;0.0000;
325;1315.03;7604.37;1790.60;3337.3333;65535.0000;3395.3333;58.0000;0.0000;0.0000;0.0000;
326;1315.87;7599.52;1795.44;3282.0000;65535.0000;3284.3333;2.3333;0.0000;0.0000;0.0000;
327;1316.71;7594.68;1800.29;3787.3333;65535.0000;3801.3333;14.0000;0.0000;0.0000;0.0000;
328;1317.55;7589.84;1805.12;2868.3333;65535.0000;2891.6667;23.3333;0.0000;0.0000;0.0000;
329;1318.39;7585.01;1809.95;3622.0000;65535.0000;3644.0000;22.0000;0.0000;0.0000;0.0000;
330;1319.23;7580.18;1814.78;3505.0000;65535.0000;3524.0000;19.0000;0.0000;0.0000;0.0000;
331;1320.07;7575.36;1819.60;3230.6667;65535.0000;3226.3333;-4.3333;0.0000;0.0000;0.0000;
332;1320.91;7570.55;1824.42;3195.6667;65535.0000;3212.6667;17.0000;0.0000;0.0000;0.0000;
333;1321.75;7565.74;1829.23;3652.0000;65535.0000;3680.0000;28.0000;0.0000;0.0000;0.0000;
334;1322.59;7560.93;1834.03;3706.0000;65535.0000;3750.3333;44.3333;0.0000;0.0000;0.0000;
335;1323.43;7556.14;1838.83;3275.3333;65535.0000;3318.6667;43.3333;0.0000;0.0000;0.0000;
336;1324.27;7551.34;1843.62;3163.3333;65535.0000;3226.3333;63.0000;0.0000;0.0000;0.0000;
337;1325.11;7546.55;1848.41;3286.6667;65535.0000;3252.6667;-34.0000;0.0000;0.0000;0.0000;
338;1325.95;7541.77;1853.19;3452.6667;65535.0000;3460.6667;8.0000;0.0000;0.0000;0.0000;
339;1326.79;7536.99;1857.97;3697.3333;65535.0000;3732.0000;34.6667;0.0000;0.0000;0.0000;
340;1327.63;7532.22;1862.74;3487.6667;65535.0000;3493.0000;5.3333;0.0000;0.0000;0.0000;
341;1328.47;7527.45;1867.51;3529.3333;65535.0000;3555.6667;26.3333;0.0000;0.0000;0.0000;
342;1329.31;7522.69;1872.27;3683.3333;65535.0000;3731.3333;48.0000;0.0000;0.0000;0.0000;
343;1330.15;7517.94;1877.03;3365.3333;65535.0000;3378.0000;12.6667;0.0000;0.0000;0.0000;
344;1330.99;7513.19;1881.78;3235.6667;65535.0000;3240.6667;5.0000;0.0000;0.0000;0.0000;
345;1331.83;7508.44;1886.52;3138.3333;65535.0000;3184.3333;46.0000;0.0000;0.0000;0.0000;
346;1332.68;7503.70;1891.27;3132.6667;65535.0000;3164.6667;32.0000;0.0000;0.0000;0.0000;
347;1333.52;7498.96;1896.00;3398.6667;65535.0000;3428.3333;29.6667;0.0000;0.0000;0.0000;
348;1334.36;7494.23;1900.73;3202.6667;65535.0000;3220.3333;17.6667;0.0000;0.0000;0.0000;
349;1335.20;7489.51;1905.46;3464.0000;65535.0000;3491.0000;27.0000;0.0000;0.0000;0.0000;
350;1336.04;7484.79;1910.18;2926.0000;65535.0000;2931.0000;5.0000;0.0000;0.0000;0.0000;
351;1336.89;7480.07;1914.89;3203.6667;65535.0000;3254.3333;50.6667;0.0000;0.0000;0.0000;
352;1337.73;7475.37;1919.60;3184.3333;65535.0000;3227.6667;43.3333;0.0000;0.0000;0.0000;
353;1338.57;7470.66;1924.30;3538.0000;65535.0000;3540.0000;2.0000;0.0000;0.0000;0.0000;
354;1339.41;7465.96;1929.00;2892.3333;65535.0000;2927.3333;35.0000;0.0000;0.0000;0.0000;
355;1340.25;7461.27;1933.70;3331.3333;65535.0000;3328.0000;-3.3333;0.0000;0.0000;0.0000;
356;1341.10;7456.58;1938.38;3264.6667;65535.0000;3278.0000;13.3333;0.0000;0.0000;0.0000;
357;1341.94;7451.90;1943.07;3118.6667;65535.0000;3148.3333;29.6667;0.0000;0.0000;0.0000;
358;1342.78;7447.22;1947.75;3511.3333;65535.0000;3542.3333;31.0000;0.0000;0.0000;0.0000;
359;1343.63;7442.54;1952.42;3500.0000;65535.0000;3519.0000;19.0000;0.0000;0.0000;0.0000;
360;1344.47;7437.88;1957.09;3364.0000;65535.0000;3402.3333;38.3333;0.0000;0.0000;0.0000;
361;1345.31;7433.21;1961.75;3681.6667;65535.0000;3712.3333;30.6667;0.0000;0.0000;0.0000;
362;1346.16;7428.55;1966.41;3240.3333;65535.0000;3267.3333;27.0000;0.0000;0.0000;0.0000;
363;1347.00;7423.90;1971.06;3418.3333;65535.0000;3392.3333;-26.0000;0.0000;0.0000;0.0000;
364;1347.84;7419.25;1975.71;3132.6667;65535.0000;3187.0000;54.3333;0.0000;0.0000;0.0000;
365;1348.69;7414.61;1980.35;3073.3333;65535.0000;3121.0000;47.6667;0.0000;0.0000;0.0000;
366;1349.53;7409.97;1984.99;2879.0000;65535.0000;2897.3333;18.3333;0.0000;0.0000;0.0000;
367;1350.38;7405.34;1989.62;3630.0000;65535.0000;3661.3333;31.3333;0.0000;0.0000;0.0000;
368;1351.22;7400.71;1994.25;3534.6667;65535.0000;3553.0000;18.3333;0.0000;0.0000;0.0000;
369;1352.07;7396.09;1998.88;3606.3333;65535.0000;3641.6667;35.3333;0.0000;0.0000;0.0000;
370;1352.91;7391.47;2003.49;3212.0000;65535.0000;3248.3333;36.3333;0.0000;0.0000;0.0000;
371;1353.76;7386.86;2008.11;3185.0000;65535.0000;3203.0000;18.0000;0.0000;0.0000;0.0000;
372;1354.60;7382.25;2012.71;3688.0000;65535.0000;3711.3333;23.3333;0.0000;0.0000;0.0000;
373;1355.45;7377.65;2017.32;3839.3333;65535.0000;3852.0000;12.6667;0.0000;0.0000;0.0000;
374;1356.29;7373.05;2021.92;3377.0000;65535.0000;3406.3333;29.3333;0.0000;0.0000;0.0000;
375;1357.14;7368.46;2026.51;3637.6667;65535.0000;3679.3333;41.6667;0.0000;0.0000;0.0000;
376;1357.98;7363.87;2031.10;3244.3333;65535.0000;3257.3333;13.0000;0.0000;0.0000;0.0000;
377;1358.83;7359.28;2035.68;3515.6667;65535.0000;3565.3333;49.6667;0.0000;0.0000;0.0000;
378;1359.67;7354.71;2040.26;3160.0000;65535.0000;3175.6667;15.6667;0.0000;0.0000;0.0000;
379;1360.52;7350.13;2044.83;3587.0000;65535.0000;3625.3333;38.3333;0.0000;0.0000;0.0000;
380;1361.37;7345.56;2049.40;3424.6667;65535.0000;3418.6667;-6.0000;0.0000;0.0000;0.0000;
381;1362.21;7341.00;2053.96;3875.0000;65535.0000;3925.0000;50.0000;0.0000;0.0000;0.0000;
382;1363.06;7336.44;2058.52;3713.6667;65535.0000;3738.0000;24.3333;0.0000;0.0000;0.0000;
383;1363.91;7331.89;2063.08;3229.3333;65535.0000;3236.3333;7.0000;0.0000;0.0000;0.0000;
384;1364.75;7327.34;2067.63;3440.6667;65535.0000;3477.6667;37.0000;0.0000;0.0000;0.0000;
385;1365.60;7322.79;2072.17;3012.6667;65535.0000;3041.3333;28.6667;0.0000;0.0000;0.0000;
386;1366.45;7318.25;2076.71;3275.0000;65535.0000;3293.3333;18.3333;0.0000;0.0000;0.0000;
387;1367.29;7313.72;2081.24;3836.0000;65535.0000;3841.3333;5.3333;0.0000;0.0000;0.0000;
388;1368.14;7309.19;2085.77;3343.3333;65535.0000;3360.6667;17.3333;0.0000;0.0000;0.0000;
389;1368.99;7304.66;2090.30;3535.3333;65535.0000;3550.3333;15.0000;0.0000;0.0000;0.0000;
390;1369.84;7300.14;2094.82;3422.6667;65535.0000;3471.0000;48.3333;0.0000;0.0000;0.0000;
391;1370.68;7295.63;2099.34;3753.3333;65535.0000;3763.3333;10.0000;0.0000;0.0000;0.0000;
392;1371.53;7291.12;2103.85;3452.6667;65535.0000;3487.0000;34.3333;0.0000;0.0000;0.0000;
393;1372.38;7286.61;2108.35;3365.6667;65535.0000;3389.6667;24.0000;0.0000;0.0000;0.0000;
394;1373.23;7282.11;2112.85;2976.3333;65535.0000;3004.3333;28.0000;0.0000;0.0000;0.0000;
395;1374.08;7277.61;2117.35;3682.0000;65535.0000;3709.3333;27.3333;0.0000;0.0000;0.0000;
396;1374.93;7273.12;2121.84;3287.3333;65535.0000;3344.3333;57.0000;0.0000;0.0000;0.0000;
397;1375.77;7268.63;2126.33;3803.3333;65535.0000;3810.0000;6.6667;0.0000;0.0000;0.0000;
398;1376.62;7264.15;2130.81;3038.3333;65535.0000;3067.3333;29.0000;0.0000;0.0000;0.0000;
399;1377.47;7259.67;2135.29;3683.0000;65535.0000;3682.6667;-0.3333;0.0000;0.0000;0.0000;
400;1378.32;7255.20;2139.76;3146.3333;65535.0000;3129.0000;-17.3333;0.0000;0.0000;0.0000;
401;1379.17;7250.73;2144.23;3709.0000;65535.0000;3743.0000;34.0000;0.0000;0.0000;0.0000;
402;1380.02;7246.27;2148.69;3344.6667;65535.0000;3335.0000;-9.6667;0.0000;0.0000;0.0000;
403;1380.87;7241.81;2153.15;3367.0000;65535.0000;3419.0000;52.0000;0.0000;0.0000;0.0000;
404;1381.72;7237.36;2157.61;3002.3333;65535.0000;3044.0000;41.6667;0.0000;0.0000;0.0000;
405;1382.57;7232.91;2162.06;3589.3333;65535.0000;3614.3333;25.0000;0.0000;0.0000;0.0000;
406;1383.42;7228.46;2166.50;3248.0000;65535.0000;3244.6667;-3.3333;0.0000;0.0000;0.0000;
407;1384.27;7224.02;2170.94;3835.6667;65535.0000;3835.3333;-0.3333;0.0000;0.0000;0.0000;
408;1385.12;7219.59;2175.38;3190.3333;65535.0000;3202.6667;12.3333;0.0000;0.0000;0.0000;
409;1385.97;7215.15;2179.81;3683.0000;65535.0000;3676.6667;-6.3333;0.0000;0.0000;0.0000;
410;1386.82;7210.73;2184.24;3720.0000;65535.0000;3747.3333;27.3333;0.0000;0.0000;0.0000;
411;1387.67;7206.31;2188.66;3705.0000;65535.0000;3752.0000;47.0000;0.0000;0.0000;0.0000;
412;1388.52;7201.89;2193.08;3226.3333;65535.0000;3227.3333;1.0000;0.0000;0.0000;0.0000;
413;1389.38;7197.47;2197.49;3823.3333;65535.0000;3860.0000;36.6667;0.0000;0.0000;0.0000;
414;1390.23;7193.07;2201.90;3134.3333;65535.0000;3136.3333;2.0000;0.0000;0.0000;0.0000;
415;1391.08;7188.66;2206.30;3511.3333;65535.0000;3532.6667;21.3333;0.0000;0.0000;0.0000;
416;1391.93;7184.26;2210.70;3181.6667;65535.0000;3165.3333;-16.3333;0.0000;0.0000;0.0000;
417;1392.78;7179.87;2215.10;3213.3333;65535.0000;3225.3333;12.0000;0.0000;0.0000;0.0000;
418;1393.64;7175.48;2219.49;3018.3333;65535.0000;3034.0000;15.6667;0.0000;0.0000;0.0000;
419;1394.49;7171.09;2223.87;3633.0000;65535.0000;3659.0000;26.0000;0.0000;0.0000;0.0000;
420;1395.34;7166.71;2228.25;3673.0000;65535.0000;3668.6667;-4.3333;0.0000;0.0000;0.0000;
421;1396.19;7162.33;2232.63;3963.6667;65535.0000;3976.6667;13.0000;0.0000;0.0000;0.0000;
422;1397.05;7157.96;2237.00;3542.0000;65535.0000;3575.6667;33.6667;0.0000;0.0000;0.0000;
423;1397.90;7153.59;2241.37;3535.6667;65535.0000;3550.0000;14.3333;0.0000;0.0000;0.0000;
424;1398.75;7149.23;2245.73;3056.6667;65535.0000;3055.6667;-1.0000;0.0000;0.0000;0.0000;
425;1399.61;7144.87;2250.09;3518.6667;65535.0000;3508.0000;-10.6667;0.0000;0.0000;0.0000;
426;1400.46;7140.52;2254.45;3378.0000;65535.0000;3353.0000;-25.0000;0.0000;0.0000;0.0000;
427;1401.31;7136.17;2258.80;3752.6667;65535.0000;3730.6667;-22.0000;0.0000;0.0000;0.0000;
428;1402.17;7131.82;2263.14;3007.3333;65535.0000;3017.3333;10.0000;0.0000;0.0000;0.0000;
429;1403.02;7127.48;2267.48;3740.3333;65535.0000;3756.6667;16.3333;0.0000;0.0000;0.0000;
430;1403.87;7123.14;2271.82;3038.3333;65535.0000;3031.0000;-7.3333;0.0000;0.0000;0.0000;
431;1404.73;7118.81;2276.15;3659.0000;65535.0000;3682.0000;23.0000;0.0000;0.0000;0.0000;
432;1405.58;7114.48;2280.48;2759.3333;65535.0000;2748.0000;-11.3333;0.0000;0.0000;0.0000;
433;1406.44;7110.16;2284.80;3250.0000;65535.0000;3238.6667;-11.3333;0.0000;0.0000;0.0000;
434;1407.29;7105.84;2289.12;3125.3333;65535.0000;3117.6667;-7.6667;0.0000;0.0000;0.0000;
435;1408.15;7101.53;2293.44;3309.0000;65535.0000;3311.6667;2.6667;0.0000;0.0000;0.0000;
436;1409.00;7097.22;2297.75;3375.3333;65535.0000;3367.3333;-8.0000;0.0000;0.0000;0.0000;
437;1409.86;7092.91;2302.06;3507.0000;65535.0000;3484.6667;-22.3333;0.0000;0.0000;0.0000;
438;1410.71;7088.61;2306.36;3455.6667;65535.0000;3432.3333;-23.3333;0.0000;0.0000;0.0000;
439;1411.57;7084.31;2310.65;3416.6667;65535.0000;3412.0000;-4.6667;0.0000;0.0000;0.0000;
440;1412.43;7080.02;2314.95;3074.6667;65535.0000;3082.3333;7.6667;0.0000;0.0000;0.0000;
441;1413.28;7075.73;2319.24;3472.6667;65535.0000;3448.6667;-24.0000;0.0000;0.0000;0.0000;
442;1414.14;7071.44;2323.52;3315.6667;65535.0000;3292.0000;-23.6667;0.0000;0.0000;0.0000;
443;1414.99;7067.16;2327.80;4167.6667;65535.0000;4134.3333;-33.3333;0.0000;0.0000;0.0000;
444;1415.85;7062.89;2332.08;3207.6667;65535.0000;3188.3333;-19.3333;0.0000;0.0000;0.0000;
445;1416.71;7058.62;2336.35;3401.3333;65535.0000;3388.6667;-12.6667;0.0000;0.0000;0.0000;
446;1417.57;7054.35;2340.62;3323.0000;65535.0000;3320.0000;-3.0000;0.0000;0.0000;0.0000;
447;1418.42;7050.09;2344.88;3713.6667;65535.0000;3749.6667;36.0000;0.0000;0.0000;0.0000;
448;1419.28;7045.83;2349.14;3303.3333;65535.0000;3309.6667;6.3333;0.0000;0.0000;0.0000;
449;1420.14;7041.57;2353.39;3380.0000;65535.0000;3413.3333;33.3333;0.0000;0.0000;0.0000;
450;1421.00;7037.32;2357.64;3082.6667;65535.0000;3088.0000;5.3333;0.0000;0.0000;0.0000;
451;1421.85;7033.08;2361.89;3536.0000;65535.0000;3531.6667;-4.3333;0.0000;0.0000;0.0000;
452;1422.71;7028.83;2366.13;3147.6667;65535.0000;3135.0000;-12.6667;0.0000;0.0000;0.0000;
453;1423.57;7024.60;2370.37;3247.0000;65535.0000;3220.3333;-26.6667;0.0000;0.0000;0.0000;
454;1424.43;7020.36;2374.60;3313.0000;65535.0000;3320.6667;7.6667;0.0000;0.0000;0.0000;
455;1425.29;7016.13;2378.83;3853.3333;65535.0000;3860.3333;7.0000;0.0000;0.0000;0.0000;
456;1426.15;7011.91;2383.06;3136.0000;65535.0000;3141.6667;5.6667;0.0000;0.0000;0.0000;
457;1427.00;7007.69;2387.28;3356.6667;65535.0000;3370.6667;14.0000;0.0000;0.0000;0.0000;
458;1427.86;7003.47;2391.49;3000.6667;65535.0000;2979.3333;-21.3333;0.0000;0.0000;0.0000;
459;1428.72;6999.26;2395.71;3728.3333;65535.0000;3705.6667;-22.6667;0.0000;0.0000;0.0000;
460;1429.58;6995.05;2399.92;3520.3333;65535.0000;3505.3333;-15.0000;0.0000;0.0000;0.0000;
461;1430.44;6990.84;2404.12;3459.3333;65535.0000;3468.0000;8.6667;0.0000;0.0000;0.0000;
462;1431.30;6986.64;2408.32;3292.6667;65535.0000;3275.3333;-17.3333;0.0000;0.0000;0.0000;
463;1432.16;6982.45;2412.52;3295.0000;65535.0000;3273.6667;-21.3333;0.0000;0.0000;0.0000;
464;1433.02;6978.26;2416.71;3251.0000;65535.0000;3249.0000;-2.0000;0.0000;0.0000;0.0000;
465;1433.88;6974.07;2420.90;3544.3333;65535.0000;3555.0000;10.6667;0.0000;0.0000;0.0000;
466;1434.74;6969.88;2425.08;3521.0000;65535.0000;3547.3333;26.3333;0.0000;0.0000;0.0000;
467;1435.60;6965.71;2429.26;3639.6667;65535.0000;3658.6667;19.0000;0.0000;0.0000;0.0000;
468;1436.47;6961.53;2433.43;3298.6667;65535.0000;3274.6667;-24.0000;0.0000;0.0000;0.0000;
469;1437.33;6957.36;2437.61;3774.6667;65535.0000;3793.3333;18.6667;0.0000;0.0000;0.0000;
470;1438.19;6953.19;2441.77;3278.6667;65535.0000;3300.6667;22.0000;0.0000;0.0000;0.0000;
471;1439.05;6949.03;2445.94;3081.6667;65535.0000;3052.6667;-29.0000;0.0000;0.0000;0.0000;
472;1439.91;6944.87;2450.10;3466.0000;65535.0000;3426.3333;-39.6667;0.0000;0.0000;0.0000;
473;1440.77;6940.71;2454.25;3607.0000;65535.0000;3619.6667;12.6667;0.0000;0.0000;0.0000;
474;1441.64;6936.56;2458.40;2747.3333;65535.0000;2719.3333;-28.0000;0.0000;0.0000;0.0000;
475;1442.50;6932.42;2462.55;3284.6667;65535.0000;3328.3333;43.6667;0.0000;0.0000;0.0000;
476;1443.36;6928.27;2466.69;2968.6667;65535.0000;2988.6667;20.0000;0.0000;0.0000;0.0000;
477;1444.22;6924.13;2470.83;3024.0000;65535.0000;3027.0000;3.0000;0.0000;0.0000;0.0000;
478;1445.09;6920.00;2474.97;3303.6667;65535.0000;3306.6667;3.0000;0.0000;0.0000;0.0000;
479;1445.95;6915.87;2479.10;3142.3333;65535.0000;3175.6667;33.3333;0.0000;0.0000;0.0000;
480;1446.81;6911.74;2483.22;3108.3333;65535.0000;3093.3333;-15.0000;0.0000;0.0000;0.0000;
481;1447.68;6907.62;2487.35;3477.0000;65535.0000;3448.6667;-28.3333;0.0000;0.0000;0.0000;
482;1448.54;6903.50;2491.47;3420.3333;65535.0000;3375.3333;-45.0000;0.0000;0.0000;0.0000;
483;1449.40;6899.38;2495.58;3485.6667;65535.0000;3468.0000;-17.6667;0.0000;0.0000;0.0000;
484;1450.27;6895.27;2499.69;3186.6667;65535.0000;3173.0000;-13.6667;0.0000;0.0000;0.0000;
485;1451.13;6891.16;2503.80;3460.0000;65535.0000;3462.3333;2.3333;0.0000;0.0000;0.0000;
486;   ;   ;   ;3518.6667;65535.0000;3534.3333;15.6667;0.0000;0.0000;0.0000;
487;   ;   ;   ;3565.0000;65535.0000;3549.6667;-15.3333;0.0000;0.0000;0.0000;
488;   ;   ;   ;3285.6667;65535.0000;3262.6667;-23.0000;0.0000;0.0000;0.0000;
489;   ;   ;   ;3241.6667;65535.0000;3191.6667;-50.0000;0.0000;0.0000;0.0000;
490;   ;   ;   ;3580.6667;65535.0000;3564.3333;-16.3333;0.0000;0.0000;0.0000;
491;   ;   ;   ;3477.3333;65535.0000;3490.3333;13.0000;0.0000;0.0000;0.0000;
492;   ;   ;   ;3201.3333;65535.0000;3187.6667;-13.6667;0.0000;0.0000;0.0000;
493;   ;   ;   ;3585.0000;65535.0000;3555.6667;-29.3333;0.0000;0.0000;0.0000;
494;   ;   ;   ;3281.0000;65535.0000;3286.3333;5.3333;0.0000;0.0000;0.0000;
495;   ;   ;   ;3387.0000;65535.0000;3348.3333;-38.6667;0.0000;0.0000;0.0000;
496;   ;   ;   ;2832.6667;65535.0000;2823.3333;-9.3333;0.0000;0.0000;0.0000;
497;   ;   ;   ;3648.0000;65535.0000;3644.6667;-3.3333;0.0000;0.0000;0.0000;
498;   ;   ;   ;2844.3333;65535.0000;2820.3333;-24.0000;0.0000;0.0000;0.0000;
499;   ;   ;   ;3167.6667;65535.0000;3173.6667;6.0000;0.0000;0.0000;0.0000;
500;   ;   ;   ;3170.0000;65535.0000;3131.6667;-38.3333;0.0000;0.0000;0.0000;
501;   ;   ;   ;3154.0000;65535.0000;3185.6667;31.6667;0.0000;0.0000;0.0000;
502;   ;   ;   ;3151.0000;65535.0000;3161.3333;10.3333;0.0000;0.0000;0.0000;
503;   ;   ;   ;3455.0000;65535.0000;3486.3333;31.3333;0.0000;0.0000;0.0000;
504;   ;   ;   ;3452.6667;65535.0000;3418.6667;-34.0000;0.0000;0.0000;0.0000;
505;   ;   ;   ;3286.6667;65535.0000;3299.0000;12.3333;0.0000;0.0000;0.0000;
506;   ;   ;   ;3047.0000;65535.0000;3032.3333;-14.6667;0.0000;0.0000;0.0000;
507;   ;   ;   ;3203.6667;65535.0000;3201.6667;-2.0000;0.0000;0.0000;0.0000;
508;   ;   ;   ;2627.6667;65535.0000;2625.0000;-2.6667;0.0000;0.0000;0.0000;
509;   ;   ;   ;3030.3333;65535.0000;3027.3333;-3.0000;0.0000;0.0000;0.0000;
510;   ;   ;   ;3224.3333;65535.0000;3202.6667;-21.6667;0.0000;0.0000;0.0000;
511;   ;   ;   ;3650.3333;65535.0000;3664.0000;13.6667;0.0000;0.0000;0.0000;
