File Version;BWSpec4.03_23_C
Date;2016-12-02 14:58:40
title;OOQ
model;BTC264P-1064S-512-SY
c code;OOQ
operator;
port1;0
baud1;3
pixel_start;0
pixel_end;511
step;1
units;3
bkcolor;16777215
show_mode;3
data_mode;0
pixel_mode;0
intigration times(ms);10000
average number;3
time_multiply;1
spectrometer_type ;69
yaxis;1
yaxis_min;0
yaxis_max;65535
xaxis;1
xaxis_min;57
xaxis_max;485
irrands_DispWLMin;100
irrands_DispWLMax;1000
yaxis_min_6;0
yaxis_max_6;0
irradiance_unit;0
Color_Data_Flag;0
Color_StartWL;1047
Color_EndWL;1047
Color_IncWL;10
power_unit_index;3
photometric_index;0
Illuminant_index;3
observer_index;0
lab_l;0
lab_a;0
lab_b;0
radiometric_flag;0
coefs_a0;1046.24128246353
coefs_a1;0.823573912287285
coefs_a2;-1.46846754231925E-05
coefs_a3;7.81270546723139E-08
coefs_b0;-1068.71157857918
coefs_b1;0.657654928142611
coefs_b2;0.000510871962843009
coefs_b3;-1.55922148884732E-07
coefs_r0;1
coefs_r1;0
coefs_r2;0
coefs_r3;0
coefs_j0;1
coefs_j1;0
coefs_j2;0
coefs_j3;0
enable_coefs_r;0
all_data_save;1
select_option;-1
interval_time;10000
pixel_num;512
sel_pixel_start;1
sel_pixel_end;511
sel_pixel_delta;1
dark_compensate;0
dark_compensate_value_1;0
dark_compensate_value_2;0
dark_compensate_value_3;0
monitor pixel_0;0
monitor pixel_1;0
monitor pixel_2;0
monitor pixel_3;0
monitor pixel_4;0
monitor pixel_5;0
vertical_select_flag;0
vertical_line3;44
vertical_line4;44
vertical_line3_wv;349.610890369397
vertical_line4_wv;349.610890369397
vertical_line_flag;0
vertical_line_ratio;0
laser_wavelength;1064.4
laser_powerlevel;100
overlay_js;0
Relative Intensity Correction Flag;0
Pixel;Wavelength;Wavenumber;Raman Shift;Dark;Reference;Raw data #1;Dark Subtracted #1;%TR #1;Absorbance #1;Irradiance (lumen) #1;
0;   ;   ;   ;3155.3333;65535.0000;3162.3333;7.0000;0.0000;0.0000;0.0000;
1;   ;   ;   ;3355.3333;65535.0000;3370.0000;14.6667;0.0000;0.0000;0.0000;
2;   ;   ;   ;3147.3333;65535.0000;3134.3333;-13.0000;0.0000;0.0000;0.0000;
3;   ;   ;   ;3251.6667;65535.0000;3259.0000;7.3333;0.0000;0.0000;0.0000;
4;   ;   ;   ;3135.6667;65535.0000;3139.6667;4.0000;0.0000;0.0000;0.0000;
5;   ;   ;   ;3475.0000;65535.0000;3468.3333;-6.6667;0.0000;0.0000;0.0000;
6;   ;   ;   ;2669.3333;65535.0000;2679.3333;10.0000;0.0000;0.0000;0.0000;
7;   ;   ;   ;3410.3333;65535.0000;3414.3333;4.0000;0.0000;0.0000;0.0000;
8;   ;   ;   ;2595.0000;65535.0000;2600.6667;5.6667;0.0000;0.0000;0.0000;
9;   ;   ;   ;3301.6667;65535.0000;3343.6667;42.0000;0.0000;0.0000;0.0000;
10;   ;   ;   ;3285.6667;65535.0000;3310.6667;25.0000;0.0000;0.0000;0.0000;
11;   ;   ;   ;3154.3333;65535.0000;3178.3333;24.0000;0.0000;0.0000;0.0000;
12;   ;   ;   ;3016.3333;65535.0000;3017.3333;1.0000;0.0000;0.0000;0.0000;
13;   ;   ;   ;3166.6667;65535.0000;3181.6667;15.0000;0.0000;0.0000;0.0000;
14;   ;   ;   ;3128.0000;65535.0000;3147.6667;19.6667;0.0000;0.0000;0.0000;
15;   ;   ;   ;3311.0000;65535.0000;3303.6667;-7.3333;0.0000;0.0000;0.0000;
16;   ;   ;   ;3421.0000;65535.0000;3397.6667;-23.3333;0.0000;0.0000;0.0000;
17;   ;   ;   ;3053.6667;65535.0000;3057.3333;3.6667;0.0000;0.0000;0.0000;
18;   ;   ;   ;2881.6667;65535.0000;2931.0000;49.3333;0.0000;0.0000;0.0000;
19;   ;   ;   ;3782.0000;65535.0000;3928.0000;146.0000;0.0000;0.0000;0.0000;
20;   ;   ;   ;3312.3333;65535.0000;4569.0000;1256.6667;0.0000;0.0000;0.0000;
21;   ;   ;   ;3007.0000;65535.0000;6924.3333;3917.3333;0.0000;0.0000;0.0000;
22;   ;   ;   ;3264.6667;65535.0000;6962.6667;3698.0000;0.0000;0.0000;0.0000;
23;   ;   ;   ;3264.3333;65535.0000;5702.6667;2438.3333;0.0000;0.0000;0.0000;
24;   ;   ;   ;2537.3333;65535.0000;2822.0000;284.6667;0.0000;0.0000;0.0000;
25;   ;   ;   ;3509.0000;65535.0000;3546.3333;37.3333;0.0000;0.0000;0.0000;
26;   ;   ;   ;2957.3333;65535.0000;2925.6667;-31.6667;0.0000;0.0000;0.0000;
27;   ;   ;   ;3296.6667;65535.0000;3318.0000;21.3333;0.0000;0.0000;0.0000;
28;   ;   ;   ;2922.6667;65535.0000;2980.3333;57.6667;0.0000;0.0000;0.0000;
29;   ;   ;   ;3327.0000;65535.0000;3357.3333;30.3333;0.0000;0.0000;0.0000;
30;   ;   ;   ;2955.6667;65535.0000;3059.3333;103.6667;0.0000;0.0000;0.0000;
31;   ;   ;   ;3225.6667;65535.0000;3791.0000;565.3333;0.0000;0.0000;0.0000;
32;   ;   ;   ;3258.6667;65535.0000;4749.0000;1490.3333;0.0000;0.0000;0.0000;
33;   ;   ;   ;3385.6667;65535.0000;5819.0000;2433.3333;0.0000;0.0000;0.0000;
34;   ;   ;   ;3079.3333;65535.0000;5915.6667;2836.3333;0.0000;0.0000;0.0000;
35;   ;   ;   ;3698.0000;65535.0000;6451.6667;2753.6667;0.0000;0.0000;0.0000;
36;   ;   ;   ;3118.6667;65535.0000;5662.3333;2543.6667;0.0000;0.0000;0.0000;
37;   ;   ;   ;3577.6667;65535.0000;5793.3333;2215.6667;0.0000;0.0000;0.0000;
38;   ;   ;   ;3231.0000;65535.0000;5205.3333;1974.3333;0.0000;0.0000;0.0000;
39;   ;   ;   ;3193.3333;65535.0000;4920.6667;1727.3333;0.0000;0.0000;0.0000;
40;   ;   ;   ;3177.3333;65535.0000;4759.0000;1581.6667;0.0000;0.0000;0.0000;
41;   ;   ;   ;3563.6667;65535.0000;4945.3333;1381.6667;0.0000;0.0000;0.0000;
42;   ;   ;   ;3689.6667;65535.0000;4971.3333;1281.6667;0.0000;0.0000;0.0000;
43;   ;   ;   ;3103.3333;65535.0000;4298.6667;1195.3333;0.0000;0.0000;0.0000;
44;   ;   ;   ;3437.6667;65535.0000;4587.6667;1150.0000;0.0000;0.0000;0.0000;
45;   ;   ;   ;3180.3333;65535.0000;4259.0000;1078.6667;0.0000;0.0000;0.0000;
46;   ;   ;   ;3360.0000;65535.0000;4384.0000;1024.0000;0.0000;0.0000;0.0000;
47;   ;   ;   ;3531.0000;65535.0000;4516.6667;985.6667;0.0000;0.0000;0.0000;
48;   ;   ;   ;3176.6667;65535.0000;4200.3333;1023.6667;0.0000;0.0000;0.0000;
49;   ;   ;   ;3224.6667;65535.0000;4142.0000;917.3333;0.0000;0.0000;0.0000;
50;   ;   ;   ;3221.3333;65535.0000;4181.6667;960.3333;0.0000;0.0000;0.0000;
51;   ;   ;   ;3504.6667;65535.0000;4468.6667;964.0000;0.0000;0.0000;0.0000;
52;   ;   ;   ;3330.0000;65535.0000;4321.0000;991.0000;0.0000;0.0000;0.0000;
53;   ;   ;   ;3153.6667;65535.0000;4089.0000;935.3333;0.0000;0.0000;0.0000;
54;   ;   ;   ;2753.3333;65535.0000;3641.3333;888.0000;0.0000;0.0000;0.0000;
55;   ;   ;   ;3269.3333;65535.0000;4100.3333;831.0000;0.0000;0.0000;0.0000;
56;   ;   ;   ;3527.3333;65535.0000;4355.6667;828.3333;0.0000;0.0000;0.0000;
57;1093.15;9147.86;247.10;3635.0000;65535.0000;4419.0000;784.0000;0.0000;0.0000;0.0000;
58;1093.97;9140.98;253.98;3112.0000;65535.0000;3851.3333;739.3333;0.0000;0.0000;0.0000;
59;1094.80;9134.11;260.85;3441.3333;65535.0000;4176.0000;734.6667;0.0000;0.0000;0.0000;
60;1095.62;9127.25;267.71;3359.6667;65535.0000;4052.6667;693.0000;0.0000;0.0000;0.0000;
61;1096.44;9120.41;274.56;3064.6667;65535.0000;3685.3333;620.6667;0.0000;0.0000;0.0000;
62;1097.27;9113.57;281.40;3319.0000;65535.0000;3909.3333;590.3333;0.0000;0.0000;0.0000;
63;1098.09;9106.74;288.22;3688.6667;65535.0000;4212.3333;523.6667;0.0000;0.0000;0.0000;
64;1098.91;9099.92;295.04;3187.0000;65535.0000;3737.0000;550.0000;0.0000;0.0000;0.0000;
65;1099.73;9093.12;301.85;3121.0000;65535.0000;3640.6667;519.6667;0.0000;0.0000;0.0000;
66;1100.56;9086.32;308.65;3251.3333;65535.0000;3761.3333;510.0000;0.0000;0.0000;0.0000;
67;1101.38;9079.53;315.43;3619.0000;65535.0000;4085.3333;466.3333;0.0000;0.0000;0.0000;
68;1102.20;9072.76;322.21;3098.0000;65535.0000;3521.3333;423.3333;0.0000;0.0000;0.0000;
69;1103.02;9065.99;328.98;3562.0000;65535.0000;3989.6667;427.6667;0.0000;0.0000;0.0000;
70;1103.85;9059.23;335.73;3152.0000;65535.0000;3581.6667;429.6667;0.0000;0.0000;0.0000;
71;1104.67;9052.49;342.48;3661.0000;65535.0000;4081.6667;420.6667;0.0000;0.0000;0.0000;
72;1105.49;9045.75;349.22;3271.6667;65535.0000;3674.3333;402.6667;0.0000;0.0000;0.0000;
73;1106.31;9039.02;355.94;3712.0000;65535.0000;4114.0000;402.0000;0.0000;0.0000;0.0000;
74;1107.14;9032.31;362.66;3115.6667;65535.0000;3494.0000;378.3333;0.0000;0.0000;0.0000;
75;1107.96;9025.60;369.37;3367.6667;65535.0000;3758.0000;390.3333;0.0000;0.0000;0.0000;
76;1108.78;9018.90;376.06;3289.3333;65535.0000;3681.0000;391.6667;0.0000;0.0000;0.0000;
77;1109.61;9012.22;382.75;3280.3333;65535.0000;3656.3333;376.0000;0.0000;0.0000;0.0000;
78;1110.43;9005.54;389.43;3405.3333;65535.0000;3762.0000;356.6667;0.0000;0.0000;0.0000;
79;1111.25;8998.87;396.09;3844.6667;65535.0000;4227.3333;382.6667;0.0000;0.0000;0.0000;
80;1112.07;8992.21;402.75;3281.3333;65535.0000;3673.3333;392.0000;0.0000;0.0000;0.0000;
81;1112.90;8985.57;409.40;3359.0000;65535.0000;3780.6667;421.6667;0.0000;0.0000;0.0000;
82;1113.72;8978.93;416.04;3140.3333;65535.0000;3491.3333;351.0000;0.0000;0.0000;0.0000;
83;1114.54;8972.30;422.66;3655.6667;65535.0000;4019.0000;363.3333;0.0000;0.0000;0.0000;
84;1115.36;8965.68;429.28;3295.0000;65535.0000;3672.0000;377.0000;0.0000;0.0000;0.0000;
85;1116.19;8959.07;435.89;3706.0000;65535.0000;4054.6667;348.6667;0.0000;0.0000;0.0000;
86;1117.01;8952.47;442.49;3388.0000;65535.0000;3746.3333;358.3333;0.0000;0.0000;0.0000;
87;1117.83;8945.88;449.08;3341.3333;65535.0000;3641.6667;300.3333;0.0000;0.0000;0.0000;
88;1118.66;8939.30;455.66;3077.3333;65535.0000;3452.3333;375.0000;0.0000;0.0000;0.0000;
89;1119.48;8932.73;462.23;3182.3333;65535.0000;3539.3333;357.0000;0.0000;0.0000;0.0000;
90;1120.30;8926.17;468.79;2952.6667;65535.0000;3270.0000;317.3333;0.0000;0.0000;0.0000;
91;1121.12;8919.62;475.34;3541.0000;65535.0000;3857.6667;316.6667;0.0000;0.0000;0.0000;
92;1121.95;8913.08;481.88;3520.0000;65535.0000;3860.0000;340.0000;0.0000;0.0000;0.0000;
93;1122.77;8906.55;488.42;3552.3333;65535.0000;3878.3333;326.0000;0.0000;0.0000;0.0000;
94;1123.59;8900.02;494.94;2952.3333;65535.0000;3263.3333;311.0000;0.0000;0.0000;0.0000;
95;1124.42;8893.51;501.45;3780.3333;65535.0000;4058.3333;278.0000;0.0000;0.0000;0.0000;
96;1125.24;8887.01;507.96;3488.0000;65535.0000;3796.0000;308.0000;0.0000;0.0000;0.0000;
97;1126.06;8880.51;514.45;3715.3333;65535.0000;3971.6667;256.3333;0.0000;0.0000;0.0000;
98;1126.88;8874.03;520.94;3148.3333;65535.0000;3426.0000;277.6667;0.0000;0.0000;0.0000;
99;1127.71;8867.55;527.41;3383.3333;65535.0000;3665.0000;281.6667;0.0000;0.0000;0.0000;
100;1128.53;8861.09;533.88;3128.3333;65535.0000;3403.3333;275.0000;0.0000;0.0000;0.0000;
101;1129.35;8854.63;540.34;3346.3333;65535.0000;3575.6667;229.3333;0.0000;0.0000;0.0000;
102;1130.18;8848.18;546.78;2765.6667;65535.0000;3013.0000;247.3333;0.0000;0.0000;0.0000;
103;1131.00;8841.74;553.22;3246.3333;65535.0000;3434.3333;188.0000;0.0000;0.0000;0.0000;
104;1131.82;8835.31;559.65;3115.0000;65535.0000;3291.3333;176.3333;0.0000;0.0000;0.0000;
105;1132.65;8828.89;566.07;3623.0000;65535.0000;3812.0000;189.0000;0.0000;0.0000;0.0000;
106;1133.47;8822.48;572.48;2775.3333;65535.0000;2982.3333;207.0000;0.0000;0.0000;0.0000;
107;1134.29;8816.08;578.89;3267.3333;65535.0000;3543.3333;276.0000;0.0000;0.0000;0.0000;
108;1135.11;8809.68;585.28;3152.0000;65535.0000;3425.0000;273.0000;0.0000;0.0000;0.0000;
109;1135.94;8803.30;591.66;2706.0000;65535.0000;2971.0000;265.0000;0.0000;0.0000;0.0000;
110;1136.76;8796.93;598.04;3323.0000;65535.0000;3603.6667;280.6667;0.0000;0.0000;0.0000;
111;1137.58;8790.56;604.40;3626.3333;65535.0000;3876.3333;250.0000;0.0000;0.0000;0.0000;
112;1138.41;8784.20;610.76;3455.6667;65535.0000;3706.6667;251.0000;0.0000;0.0000;0.0000;
113;1139.23;8777.86;617.11;3228.6667;65535.0000;3463.6667;235.0000;0.0000;0.0000;0.0000;
114;1140.05;8771.52;623.45;3444.6667;65535.0000;3691.6667;247.0000;0.0000;0.0000;0.0000;
115;1140.88;8765.19;629.78;3560.6667;65535.0000;3822.6667;262.0000;0.0000;0.0000;0.0000;
116;1141.70;8758.87;636.10;3139.3333;65535.0000;3337.6667;198.3333;0.0000;0.0000;0.0000;
117;1142.52;8752.55;642.41;3424.3333;65535.0000;3635.3333;211.0000;0.0000;0.0000;0.0000;
118;1143.35;8746.25;648.71;2963.6667;65535.0000;3157.0000;193.3333;0.0000;0.0000;0.0000;
119;1144.17;8739.96;655.01;3741.3333;65535.0000;3932.0000;190.6667;0.0000;0.0000;0.0000;
120;1144.99;8733.67;661.29;3452.3333;65535.0000;3597.0000;144.6667;0.0000;0.0000;0.0000;
121;1145.82;8727.40;667.57;3698.6667;65535.0000;3850.3333;151.6667;0.0000;0.0000;0.0000;
122;1146.64;8721.13;673.84;3223.6667;65535.0000;3407.3333;183.6667;0.0000;0.0000;0.0000;
123;1147.46;8714.87;680.09;3543.6667;65535.0000;3727.3333;183.6667;0.0000;0.0000;0.0000;
124;1148.29;8708.62;686.34;3148.0000;65535.0000;3328.0000;180.0000;0.0000;0.0000;0.0000;
125;1149.11;8702.38;692.59;3660.0000;65535.0000;3852.6667;192.6667;0.0000;0.0000;0.0000;
126;1149.93;8696.15;698.82;3102.6667;65535.0000;3347.6667;245.0000;0.0000;0.0000;0.0000;
127;1150.76;8689.92;705.04;3569.3333;65535.0000;3763.6667;194.3333;0.0000;0.0000;0.0000;
128;1151.58;8683.71;711.26;3038.6667;65535.0000;3288.3333;249.6667;0.0000;0.0000;0.0000;
129;1152.41;8677.50;717.46;3617.6667;65535.0000;3869.0000;251.3333;0.0000;0.0000;0.0000;
130;1153.23;8671.30;723.66;3534.0000;65535.0000;3821.3333;287.3333;0.0000;0.0000;0.0000;
131;1154.05;8665.11;729.85;3564.6667;65535.0000;3832.6667;268.0000;0.0000;0.0000;0.0000;
132;1154.88;8658.93;736.03;3671.6667;65535.0000;4033.0000;361.3333;0.0000;0.0000;0.0000;
133;1155.70;8652.76;742.20;3480.6667;65535.0000;3773.6667;293.0000;0.0000;0.0000;0.0000;
134;1156.52;8646.60;748.37;3331.3333;65535.0000;3611.0000;279.6667;0.0000;0.0000;0.0000;
135;1157.35;8640.44;754.52;3653.3333;65535.0000;3875.0000;221.6667;0.0000;0.0000;0.0000;
136;1158.17;8634.29;760.67;3295.0000;65535.0000;3589.0000;294.0000;0.0000;0.0000;0.0000;
137;1159.00;8628.16;766.81;3575.3333;65535.0000;3830.6667;255.3333;0.0000;0.0000;0.0000;
138;1159.82;8622.03;772.94;3548.6667;65535.0000;3779.0000;230.3333;0.0000;0.0000;0.0000;
139;1160.64;8615.91;779.06;3490.3333;65535.0000;3768.6667;278.3333;0.0000;0.0000;0.0000;
140;1161.47;8609.79;785.17;3608.0000;65535.0000;3866.3333;258.3333;0.0000;0.0000;0.0000;
141;1162.29;8603.69;791.28;3382.6667;65535.0000;3660.0000;277.3333;0.0000;0.0000;0.0000;
142;1163.12;8597.59;797.37;3174.6667;65535.0000;3498.3333;323.6667;0.0000;0.0000;0.0000;
143;1163.94;8591.50;803.46;3588.6667;65535.0000;3884.3333;295.6667;0.0000;0.0000;0.0000;
144;1164.76;8585.42;809.54;3350.0000;65535.0000;3732.3333;382.3333;0.0000;0.0000;0.0000;
145;1165.59;8579.35;815.61;3842.6667;65535.0000;4271.3333;428.6667;0.0000;0.0000;0.0000;
146;1166.41;8573.29;821.67;3442.6667;65535.0000;3889.0000;446.3333;0.0000;0.0000;0.0000;
147;1167.24;8567.24;827.73;3199.0000;65535.0000;3731.0000;532.0000;0.0000;0.0000;0.0000;
148;1168.06;8561.19;833.77;3573.0000;65535.0000;4189.0000;616.0000;0.0000;0.0000;0.0000;
149;1168.89;8555.15;839.81;3125.6667;65535.0000;3812.3333;686.6667;0.0000;0.0000;0.0000;
150;1169.71;8549.12;845.84;3095.3333;65535.0000;3821.3333;726.0000;0.0000;0.0000;0.0000;
151;1170.54;8543.10;851.86;3134.0000;65535.0000;3923.3333;789.3333;0.0000;0.0000;0.0000;
152;1171.36;8537.09;857.88;3606.6667;65535.0000;4382.3333;775.6667;0.0000;0.0000;0.0000;
153;1172.18;8531.08;863.88;3504.0000;65535.0000;4297.3333;793.3333;0.0000;0.0000;0.0000;
154;1173.01;8525.09;869.88;2980.6667;65535.0000;3831.3333;850.6667;0.0000;0.0000;0.0000;
155;1173.83;8519.10;875.87;3440.6667;65535.0000;4231.0000;790.3333;0.0000;0.0000;0.0000;
156;1174.66;8513.12;881.85;3578.0000;65535.0000;4354.6667;776.6667;0.0000;0.0000;0.0000;
157;1175.48;8507.14;887.82;3602.3333;65535.0000;4373.6667;771.3333;0.0000;0.0000;0.0000;
158;1176.31;8501.18;893.79;3164.0000;65535.0000;3887.6667;723.6667;0.0000;0.0000;0.0000;
159;1177.13;8495.22;899.74;3591.6667;65535.0000;4228.0000;636.3333;0.0000;0.0000;0.0000;
160;1177.96;8489.27;905.69;2750.6667;65535.0000;3390.0000;639.3333;0.0000;0.0000;0.0000;
161;1178.78;8483.33;911.63;3511.3333;65535.0000;4126.3333;615.0000;0.0000;0.0000;0.0000;
162;1179.61;8477.40;917.56;3147.3333;65535.0000;3769.3333;622.0000;0.0000;0.0000;0.0000;
163;1180.43;8471.47;923.49;3418.6667;65535.0000;4027.0000;608.3333;0.0000;0.0000;0.0000;
164;1181.26;8465.56;929.41;3085.3333;65535.0000;3678.0000;592.6667;0.0000;0.0000;0.0000;
165;1182.08;8459.65;935.32;3423.6667;65535.0000;3996.3333;572.6667;0.0000;0.0000;0.0000;
166;1182.91;8453.75;941.22;3249.3333;65535.0000;3815.3333;566.0000;0.0000;0.0000;0.0000;
167;1183.73;8447.85;947.11;3215.0000;65535.0000;3747.6667;532.6667;0.0000;0.0000;0.0000;
168;1184.56;8441.97;952.99;3416.6667;65535.0000;3973.3333;556.6667;0.0000;0.0000;0.0000;
169;1185.38;8436.09;958.87;3485.6667;65535.0000;4031.3333;545.6667;0.0000;0.0000;0.0000;
170;1186.21;8430.22;964.74;3457.3333;65535.0000;3972.6667;515.3333;0.0000;0.0000;0.0000;
171;1187.03;8424.36;970.60;3636.3333;65535.0000;4242.6667;606.3333;0.0000;0.0000;0.0000;
172;1187.86;8418.51;976.46;3393.6667;65535.0000;3981.0000;587.3333;0.0000;0.0000;0.0000;
173;1188.68;8412.66;982.30;3605.3333;65535.0000;4090.6667;485.3333;0.0000;0.0000;0.0000;
174;1189.51;8406.82;988.14;3224.3333;65535.0000;3698.3333;474.0000;0.0000;0.0000;0.0000;
175;1190.34;8400.99;993.97;3334.3333;65535.0000;3772.3333;438.0000;0.0000;0.0000;0.0000;
176;1191.16;8395.17;999.80;3311.6667;65535.0000;3801.0000;489.3333;0.0000;0.0000;0.0000;
177;1191.99;8389.35;1005.61;3315.3333;65535.0000;3847.3333;532.0000;0.0000;0.0000;0.0000;
178;1192.81;8383.55;1011.42;2857.3333;65535.0000;3410.0000;552.6667;0.0000;0.0000;0.0000;
179;1193.64;8377.75;1017.22;3771.0000;65535.0000;4353.0000;582.0000;0.0000;0.0000;0.0000;
180;1194.46;8371.95;1023.01;3393.0000;65535.0000;3998.3333;605.3333;0.0000;0.0000;0.0000;
181;1195.29;8366.17;1028.80;3802.6667;65535.0000;4403.0000;600.3333;0.0000;0.0000;0.0000;
182;1196.12;8360.39;1034.57;3553.0000;65535.0000;4163.0000;610.0000;0.0000;0.0000;0.0000;
183;1196.94;8354.62;1040.34;3080.0000;65535.0000;3737.6667;657.6667;0.0000;0.0000;0.0000;
184;1197.77;8348.86;1046.10;3494.0000;65535.0000;4125.0000;631.0000;0.0000;0.0000;0.0000;
185;1198.59;8343.10;1051.86;3529.3333;65535.0000;4193.3333;664.0000;0.0000;0.0000;0.0000;
186;1199.42;8337.36;1057.61;2777.0000;65535.0000;3575.6667;798.6667;0.0000;0.0000;0.0000;
187;1200.25;8331.62;1063.35;3281.6667;65535.0000;4190.0000;908.3333;0.0000;0.0000;0.0000;
188;1201.07;8325.89;1069.08;3375.6667;65535.0000;4404.3333;1028.6667;0.0000;0.0000;0.0000;
189;1201.90;8320.16;1074.80;2888.0000;65535.0000;3882.6667;994.6667;0.0000;0.0000;0.0000;
190;1202.73;8314.45;1080.52;3097.0000;65535.0000;4183.3333;1086.3333;0.0000;0.0000;0.0000;
191;1203.55;8308.74;1086.23;3580.0000;65535.0000;4640.0000;1060.0000;0.0000;0.0000;0.0000;
192;1204.38;8303.03;1091.93;2828.6667;65535.0000;3764.6667;936.0000;0.0000;0.0000;0.0000;
193;1205.21;8297.34;1097.63;3301.0000;65535.0000;4021.3333;720.3333;0.0000;0.0000;0.0000;
194;1206.03;8291.65;1103.31;3232.3333;65535.0000;3852.6667;620.3333;0.0000;0.0000;0.0000;
195;1206.86;8285.97;1108.99;3437.0000;65535.0000;3982.6667;545.6667;0.0000;0.0000;0.0000;
196;1207.69;8280.30;1114.67;3211.3333;65535.0000;3777.0000;565.6667;0.0000;0.0000;0.0000;
197;1208.51;8274.63;1120.33;3107.0000;65535.0000;3662.3333;555.3333;0.0000;0.0000;0.0000;
198;1209.34;8268.98;1125.99;3128.3333;65535.0000;3627.0000;498.6667;0.0000;0.0000;0.0000;
199;1210.17;8263.32;1131.64;3496.3333;65535.0000;3920.0000;423.6667;0.0000;0.0000;0.0000;
200;1210.99;8257.68;1137.28;3489.3333;65535.0000;3799.6667;310.3333;0.0000;0.0000;0.0000;
201;1211.82;8252.05;1142.92;3720.3333;65535.0000;4035.0000;314.6667;0.0000;0.0000;0.0000;
202;1212.65;8246.42;1148.55;3097.3333;65535.0000;3445.0000;347.6667;0.0000;0.0000;0.0000;
203;1213.48;8240.79;1154.17;3434.0000;65535.0000;3791.3333;357.3333;0.0000;0.0000;0.0000;
204;1214.30;8235.18;1159.78;3483.0000;65535.0000;3858.0000;375.0000;0.0000;0.0000;0.0000;
205;1215.13;8229.57;1165.39;3537.0000;65535.0000;3820.0000;283.0000;0.0000;0.0000;0.0000;
206;1215.96;8223.97;1170.99;3104.6667;65535.0000;3388.3333;283.6667;0.0000;0.0000;0.0000;
207;1216.78;8218.38;1176.58;3291.0000;65535.0000;3603.6667;312.6667;0.0000;0.0000;0.0000;
208;1217.61;8212.79;1182.17;3117.6667;65535.0000;3419.0000;301.3333;0.0000;0.0000;0.0000;
209;1218.44;8207.22;1187.75;3393.6667;65535.0000;3700.0000;306.3333;0.0000;0.0000;0.0000;
210;1219.27;8201.64;1193.32;3159.0000;65535.0000;3449.3333;290.3333;0.0000;0.0000;0.0000;
211;1220.10;8196.08;1198.88;3378.0000;65535.0000;3669.0000;291.0000;0.0000;0.0000;0.0000;
212;1220.92;8190.52;1204.44;2711.6667;65535.0000;3009.0000;297.3333;0.0000;0.0000;0.0000;
213;1221.75;8184.97;1209.99;3858.3333;65535.0000;4162.3333;304.0000;0.0000;0.0000;0.0000;
214;1222.58;8179.43;1215.54;3305.0000;65535.0000;3582.3333;277.3333;0.0000;0.0000;0.0000;
215;1223.41;8173.89;1221.07;3570.0000;65535.0000;3905.3333;335.3333;0.0000;0.0000;0.0000;
216;1224.24;8168.36;1226.60;3496.0000;65535.0000;3854.0000;358.0000;0.0000;0.0000;0.0000;
217;1225.06;8162.84;1232.12;3412.3333;65535.0000;3793.6667;381.3333;0.0000;0.0000;0.0000;
218;1225.89;8157.33;1237.64;3022.3333;65535.0000;3410.3333;388.0000;0.0000;0.0000;0.0000;
219;1226.72;8151.82;1243.15;3458.3333;65535.0000;3948.6667;490.3333;0.0000;0.0000;0.0000;
220;1227.55;8146.32;1248.65;2959.0000;65535.0000;3542.0000;583.0000;0.0000;0.0000;0.0000;
221;1228.38;8140.82;1254.14;3339.6667;65535.0000;4062.6667;723.0000;0.0000;0.0000;0.0000;
222;1229.21;8135.33;1259.63;3427.0000;65535.0000;4349.3333;922.3333;0.0000;0.0000;0.0000;
223;1230.03;8129.85;1265.11;3031.3333;65535.0000;4004.0000;972.6667;0.0000;0.0000;0.0000;
224;1230.86;8124.38;1270.58;3483.6667;65535.0000;4452.0000;968.3333;0.0000;0.0000;0.0000;
225;1231.69;8118.91;1276.05;3281.6667;65535.0000;4192.6667;911.0000;0.0000;0.0000;0.0000;
226;1232.52;8113.45;1281.51;3440.0000;65535.0000;4311.3333;871.3333;0.0000;0.0000;0.0000;
227;1233.35;8108.00;1286.96;3367.6667;65535.0000;4289.3333;921.6667;0.0000;0.0000;0.0000;
228;1234.18;8102.55;1292.41;3363.0000;65535.0000;4431.6667;1068.6667;0.0000;0.0000;0.0000;
229;1235.01;8097.11;1297.85;3641.0000;65535.0000;5076.3333;1435.3333;0.0000;0.0000;0.0000;
230;1235.84;8091.68;1303.28;2948.6667;65535.0000;4519.3333;1570.6667;0.0000;0.0000;0.0000;
231;1236.67;8086.26;1308.71;3746.3333;65535.0000;5113.6667;1367.3333;0.0000;0.0000;0.0000;
232;1237.50;8080.84;1314.13;3400.0000;65535.0000;4482.0000;1082.0000;0.0000;0.0000;0.0000;
233;1238.33;8075.42;1319.54;2950.6667;65535.0000;3829.0000;878.3333;0.0000;0.0000;0.0000;
234;1239.15;8070.02;1324.95;3453.3333;65535.0000;4117.6667;664.3333;0.0000;0.0000;0.0000;
235;1239.98;8064.62;1330.34;2932.0000;65535.0000;3455.3333;523.3333;0.0000;0.0000;0.0000;
236;1240.81;8059.23;1335.74;3655.6667;65535.0000;4068.6667;413.0000;0.0000;0.0000;0.0000;
237;1241.64;8053.84;1341.12;3481.0000;65535.0000;3837.6667;356.6667;0.0000;0.0000;0.0000;
238;1242.47;8048.46;1346.50;3314.0000;65535.0000;3667.6667;353.6667;0.0000;0.0000;0.0000;
239;1243.30;8043.09;1351.87;3535.0000;65535.0000;3862.6667;327.6667;0.0000;0.0000;0.0000;
240;1244.13;8037.72;1357.24;2864.0000;65535.0000;3176.0000;312.0000;0.0000;0.0000;0.0000;
241;1244.96;8032.37;1362.60;2981.3333;65535.0000;3302.3333;321.0000;0.0000;0.0000;0.0000;
242;1245.79;8027.01;1367.95;3239.6667;65535.0000;3577.0000;337.3333;0.0000;0.0000;0.0000;
243;1246.62;8021.67;1373.30;3560.3333;65535.0000;3834.6667;274.3333;0.0000;0.0000;0.0000;
244;1247.45;8016.33;1378.64;3324.0000;65535.0000;3569.6667;245.6667;0.0000;0.0000;0.0000;
245;1248.28;8010.99;1383.97;3386.3333;65535.0000;3616.0000;229.6667;0.0000;0.0000;0.0000;
246;1249.11;8005.67;1389.30;3405.0000;65535.0000;3644.3333;239.3333;0.0000;0.0000;0.0000;
247;1249.95;8000.35;1394.62;3484.3333;65535.0000;3738.0000;253.6667;0.0000;0.0000;0.0000;
248;1250.78;7995.04;1399.93;3008.6667;65535.0000;3244.3333;235.6667;0.0000;0.0000;0.0000;
249;1251.61;7989.73;1405.24;3326.0000;65535.0000;3632.6667;306.6667;0.0000;0.0000;0.0000;
250;1252.44;7984.43;1410.54;3121.0000;65535.0000;3452.3333;331.3333;0.0000;0.0000;0.0000;
251;1253.27;7979.14;1415.83;3573.3333;65535.0000;4013.3333;440.0000;0.0000;0.0000;0.0000;
252;1254.10;7973.85;1421.12;3315.3333;65535.0000;3817.3333;502.0000;0.0000;0.0000;0.0000;
253;1254.93;7968.57;1426.40;3724.6667;65535.0000;4526.3333;801.6667;0.0000;0.0000;0.0000;
254;1255.76;7963.29;1431.67;3554.0000;65535.0000;5004.0000;1450.0000;0.0000;0.0000;0.0000;
255;1256.59;7958.02;1436.94;3478.6667;65535.0000;5509.6667;2031.0000;0.0000;0.0000;0.0000;
256;1257.42;7952.76;1442.20;3159.3333;65535.0000;5398.0000;2238.6667;0.0000;0.0000;0.0000;
257;1258.26;7947.51;1447.46;3569.0000;65535.0000;5620.6667;2051.6667;0.0000;0.0000;0.0000;
258;1259.09;7942.26;1452.71;3286.6667;65535.0000;5131.3333;1844.6667;0.0000;0.0000;0.0000;
259;1259.92;7937.02;1457.95;3436.6667;65535.0000;5054.0000;1617.3333;0.0000;0.0000;0.0000;
260;1260.75;7931.78;1463.18;3546.3333;65535.0000;4879.6667;1333.3333;0.0000;0.0000;0.0000;
261;1261.58;7926.55;1468.41;3268.6667;65535.0000;4249.6667;981.0000;0.0000;0.0000;0.0000;
262;1262.41;7921.33;1473.64;3425.3333;65535.0000;4139.6667;714.3333;0.0000;0.0000;0.0000;
263;1263.25;7916.11;1478.85;3546.3333;65535.0000;4050.0000;503.6667;0.0000;0.0000;0.0000;
264;1264.08;7910.90;1484.07;2947.6667;65535.0000;3285.0000;337.3333;0.0000;0.0000;0.0000;
265;1264.91;7905.69;1489.27;3448.0000;65535.0000;3772.3333;324.3333;0.0000;0.0000;0.0000;
266;1265.74;7900.50;1494.47;3403.3333;65535.0000;3688.3333;285.0000;0.0000;0.0000;0.0000;
267;1266.58;7895.30;1499.66;3382.6667;65535.0000;3595.3333;212.6667;0.0000;0.0000;0.0000;
268;1267.41;7890.12;1504.85;3376.0000;65535.0000;3572.3333;196.3333;0.0000;0.0000;0.0000;
269;1268.24;7884.94;1510.03;3191.0000;65535.0000;3373.3333;182.3333;0.0000;0.0000;0.0000;
270;1269.07;7879.76;1515.20;2888.6667;65535.0000;3082.3333;193.6667;0.0000;0.0000;0.0000;
271;1269.91;7874.60;1520.37;3363.6667;65535.0000;3569.3333;205.6667;0.0000;0.0000;0.0000;
272;1270.74;7869.44;1525.53;3028.6667;65535.0000;3209.6667;181.0000;0.0000;0.0000;0.0000;
273;1271.57;7864.28;1530.68;3643.0000;65535.0000;3823.6667;180.6667;0.0000;0.0000;0.0000;
274;1272.41;7859.13;1535.83;3235.0000;65535.0000;3391.6667;156.6667;0.0000;0.0000;0.0000;
275;1273.24;7853.99;1540.98;3463.3333;65535.0000;3639.3333;176.0000;0.0000;0.0000;0.0000;
276;1274.07;7848.85;1546.11;3128.3333;65535.0000;3272.0000;143.6667;0.0000;0.0000;0.0000;
277;1274.91;7843.72;1551.24;3051.3333;65535.0000;3202.3333;151.0000;0.0000;0.0000;0.0000;
278;1275.74;7838.60;1556.37;3617.0000;65535.0000;3727.6667;110.6667;0.0000;0.0000;0.0000;
279;1276.57;7833.48;1561.49;3705.3333;65535.0000;3788.0000;82.6667;0.0000;0.0000;0.0000;
280;1277.41;7828.37;1566.60;3382.3333;65535.0000;3455.6667;73.3333;0.0000;0.0000;0.0000;
281;1278.24;7823.26;1571.70;3413.6667;65535.0000;3502.0000;88.3333;0.0000;0.0000;0.0000;
282;1279.07;7818.16;1576.80;3189.6667;65535.0000;3309.0000;119.3333;0.0000;0.0000;0.0000;
283;1279.91;7813.07;1581.90;3329.3333;65535.0000;3433.6667;104.3333;0.0000;0.0000;0.0000;
284;1280.74;7807.98;1586.99;3358.3333;65535.0000;3425.6667;67.3333;0.0000;0.0000;0.0000;
285;1281.58;7802.89;1592.07;3196.0000;65535.0000;3291.3333;95.3333;0.0000;0.0000;0.0000;
286;1282.41;7797.82;1597.15;3617.0000;65535.0000;3725.0000;108.0000;0.0000;0.0000;0.0000;
287;1283.24;7792.75;1602.22;3435.3333;65535.0000;3532.6667;97.3333;0.0000;0.0000;0.0000;
288;1284.08;7787.68;1607.28;3322.6667;65535.0000;3418.6667;96.0000;0.0000;0.0000;0.0000;
289;1284.91;7782.63;1612.34;4107.3333;65535.0000;4222.6667;115.3333;0.0000;0.0000;0.0000;
290;1285.75;7777.57;1617.39;3468.3333;65535.0000;3583.0000;114.6667;0.0000;0.0000;0.0000;
291;1286.58;7772.53;1622.44;3494.0000;65535.0000;3648.6667;154.6667;0.0000;0.0000;0.0000;
292;1287.42;7767.49;1627.48;3450.0000;65535.0000;3552.3333;102.3333;0.0000;0.0000;0.0000;
293;1288.25;7762.45;1632.51;2986.3333;65535.0000;3125.6667;139.3333;0.0000;0.0000;0.0000;
294;1289.09;7757.42;1637.54;3264.6667;65535.0000;3468.6667;204.0000;0.0000;0.0000;0.0000;
295;1289.92;7752.40;1642.57;3312.3333;65535.0000;3661.0000;348.6667;0.0000;0.0000;0.0000;
296;1290.76;7747.38;1647.58;3362.6667;65535.0000;4022.3333;659.6667;0.0000;0.0000;0.0000;
297;1291.59;7742.37;1652.59;3651.6667;65535.0000;4661.3333;1009.6667;0.0000;0.0000;0.0000;
298;1292.43;7737.36;1657.60;3215.0000;65535.0000;4327.6667;1112.6667;0.0000;0.0000;0.0000;
299;1293.27;7732.36;1662.60;3735.0000;65535.0000;4584.3333;849.3333;0.0000;0.0000;0.0000;
300;1294.10;7727.37;1667.59;3234.6667;65535.0000;3822.6667;588.0000;0.0000;0.0000;0.0000;
301;1294.94;7722.38;1672.58;3448.3333;65535.0000;3827.3333;379.0000;0.0000;0.0000;0.0000;
302;1295.77;7717.40;1677.56;3296.3333;65535.0000;3567.0000;270.6667;0.0000;0.0000;0.0000;
303;1296.61;7712.42;1682.54;3209.3333;65535.0000;3408.3333;199.0000;0.0000;0.0000;0.0000;
304;1297.45;7707.45;1687.51;2832.3333;65535.0000;2973.0000;140.6667;0.0000;0.0000;0.0000;
305;1298.28;7702.49;1692.48;3086.3333;65535.0000;3165.6667;79.3333;0.0000;0.0000;0.0000;
306;1299.12;7697.53;1697.44;3635.6667;65535.0000;3697.0000;61.3333;0.0000;0.0000;0.0000;
307;1299.96;7692.57;1702.39;3728.3333;65535.0000;3822.6667;94.3333;0.0000;0.0000;0.0000;
308;1300.79;7687.63;1707.34;3603.3333;65535.0000;3690.3333;87.0000;0.0000;0.0000;0.0000;
309;1301.63;7682.68;1712.28;3345.3333;65535.0000;3409.6667;64.3333;0.0000;0.0000;0.0000;
310;1302.47;7677.75;1717.22;3298.6667;65535.0000;3363.3333;64.6667;0.0000;0.0000;0.0000;
311;1303.30;7672.82;1722.15;3504.6667;65535.0000;3619.6667;115.0000;0.0000;0.0000;0.0000;
312;1304.14;7667.89;1727.07;3479.6667;65535.0000;3603.3333;123.6667;0.0000;0.0000;0.0000;
313;1304.98;7662.97;1731.99;3806.3333;65535.0000;3967.0000;160.6667;0.0000;0.0000;0.0000;
314;1305.81;7658.06;1736.91;3604.3333;65535.0000;3868.6667;264.3333;0.0000;0.0000;0.0000;
315;1306.65;7653.15;1741.82;3703.6667;65535.0000;3981.6667;278.0000;0.0000;0.0000;0.0000;
316;1307.49;7648.24;1746.72;3592.0000;65535.0000;3899.0000;307.0000;0.0000;0.0000;0.0000;
317;1308.33;7643.35;1751.62;3244.0000;65535.0000;3543.0000;299.0000;0.0000;0.0000;0.0000;
318;1309.17;7638.46;1756.51;3006.0000;65535.0000;3241.3333;235.3333;0.0000;0.0000;0.0000;
319;1310.00;7633.57;1761.40;3256.0000;65535.0000;3463.6667;207.6667;0.0000;0.0000;0.0000;
320;1310.84;7628.69;1766.28;3463.3333;65535.0000;3617.6667;154.3333;0.0000;0.0000;0.0000;
321;1311.68;7623.81;1771.15;3654.6667;65535.0000;3772.6667;118.0000;0.0000;0.0000;0.0000;
322;1312.52;7618.94;1776.02;3505.0000;65535.0000;3592.3333;87.3333;0.0000;0.0000;0.0000;
323;1313.36;7614.08;1780.88;3467.0000;65535.0000;3504.6667;37.6667;0.0000;0.0000;0.0000;
324;1314.19;7609.22;1785.74;3173.0000;65535.0000;3223.3333;50.3333;0.0000;0.0000;0.0000;
325;1315.03;7604.37;1790.60;3312.6667;65535.0000;3365.0000;52.3333;0.0000;0.0000;0.0000;
326;1315.87;7599.52;1795.44;3283.0000;65535.0000;3313.3333;30.3333;0.0000;0.0000;0.0000;
327;1316.71;7594.68;1800.29;3701.6667;65535.0000;3771.0000;69.3333;0.0000;0.0000;0.0000;
328;1317.55;7589.84;1805.12;2889.0000;65535.0000;2895.0000;6.0000;0.0000;0.0000;0.0000;
329;1318.39;7585.01;1809.95;3593.6667;65535.0000;3649.0000;55.3333;0.0000;0.0000;0.0000;
330;1319.23;7580.18;1814.78;3520.6667;65535.0000;3551.0000;30.3333;0.0000;0.0000;0.0000;
331;1320.07;7575.36;1819.60;3198.3333;65535.0000;3256.6667;58.3333;0.0000;0.0000;0.0000;
332;1320.91;7570.55;1824.42;3178.6667;65535.0000;3240.0000;61.3333;0.0000;0.0000;0.0000;
333;1321.75;7565.74;1829.23;3608.0000;65535.0000;3649.3333;41.3333;0.0000;0.0000;0.0000;
334;1322.59;7560.93;1834.03;3738.6667;65535.0000;3746.3333;7.6667;0.0000;0.0000;0.0000;
335;1323.43;7556.14;1838.83;3233.3333;65535.0000;3291.3333;58.0000;0.0000;0.0000;0.0000;
336;1324.27;7551.34;1843.62;3176.3333;65535.0000;3209.0000;32.6667;0.0000;0.0000;0.0000;
337;1325.11;7546.55;1848.41;3225.6667;65535.0000;3264.3333;38.6667;0.0000;0.0000;0.0000;
338;1325.95;7541.77;1853.19;3430.3333;65535.0000;3470.3333;40.0000;0.0000;0.0000;0.0000;
339;1326.79;7536.99;1857.97;3700.3333;65535.0000;3718.3333;18.0000;0.0000;0.0000;0.0000;
340;1327.63;7532.22;1862.74;3471.0000;65535.0000;3512.3333;41.3333;0.0000;0.0000;0.0000;
341;1328.47;7527.45;1867.51;3527.3333;65535.0000;3531.0000;3.6667;0.0000;0.0000;0.0000;
342;1329.31;7522.69;1872.27;3708.3333;65535.0000;3764.6667;56.3333;0.0000;0.0000;0.0000;
343;1330.15;7517.94;1877.03;3365.6667;65535.0000;3364.0000;-1.6667;0.0000;0.0000;0.0000;
344;1330.99;7513.19;1881.78;3243.6667;65535.0000;3258.6667;15.0000;0.0000;0.0000;0.0000;
345;1331.83;7508.44;1886.52;3115.0000;65535.0000;3158.6667;43.6667;0.0000;0.0000;0.0000;
346;1332.68;7503.70;1891.27;3153.3333;65535.0000;3175.3333;22.0000;0.0000;0.0000;0.0000;
347;1333.52;7498.96;1896.00;3332.3333;65535.0000;3372.0000;39.6667;0.0000;0.0000;0.0000;
348;1334.36;7494.23;1900.73;3199.3333;65535.0000;3240.3333;41.0000;0.0000;0.0000;0.0000;
349;1335.20;7489.51;1905.46;3477.3333;65535.0000;3487.0000;9.6667;0.0000;0.0000;0.0000;
350;1336.04;7484.79;1910.18;2921.6667;65535.0000;2977.0000;55.3333;0.0000;0.0000;0.0000;
351;1336.89;7480.07;1914.89;3200.6667;65535.0000;3237.3333;36.6667;0.0000;0.0000;0.0000;
352;1337.73;7475.37;1919.60;3228.3333;65535.0000;3232.0000;3.6667;0.0000;0.0000;0.0000;
353;1338.57;7470.66;1924.30;3500.6667;65535.0000;3519.6667;19.0000;0.0000;0.0000;0.0000;
354;1339.41;7465.96;1929.00;2877.6667;65535.0000;2905.3333;27.6667;0.0000;0.0000;0.0000;
355;1340.25;7461.27;1933.70;3287.0000;65535.0000;3337.3333;50.3333;0.0000;0.0000;0.0000;
356;1341.10;7456.58;1938.38;3244.0000;65535.0000;3287.3333;43.3333;0.0000;0.0000;0.0000;
357;1341.94;7451.90;1943.07;3089.6667;65535.0000;3116.0000;26.3333;0.0000;0.0000;0.0000;
358;1342.78;7447.22;1947.75;3514.0000;65535.0000;3524.6667;10.6667;0.0000;0.0000;0.0000;
359;1343.63;7442.54;1952.42;3489.6667;65535.0000;3518.6667;29.0000;0.0000;0.0000;0.0000;
360;1344.47;7437.88;1957.09;3373.6667;65535.0000;3406.0000;32.3333;0.0000;0.0000;0.0000;
361;1345.31;7433.21;1961.75;3646.0000;65535.0000;3689.0000;43.0000;0.0000;0.0000;0.0000;
362;1346.16;7428.55;1966.41;3243.6667;65535.0000;3267.0000;23.3333;0.0000;0.0000;0.0000;
363;1347.00;7423.90;1971.06;3362.6667;65535.0000;3381.0000;18.3333;0.0000;0.0000;0.0000;
364;1347.84;7419.25;1975.71;3130.3333;65535.0000;3164.3333;34.0000;0.0000;0.0000;0.0000;
365;1348.69;7414.61;1980.35;3060.3333;65535.0000;3085.0000;24.6667;0.0000;0.0000;0.0000;
366;1349.53;7409.97;1984.99;2860.6667;65535.0000;2897.6667;37.0000;0.0000;0.0000;0.0000;
367;1350.38;7405.34;1989.62;3623.6667;65535.0000;3674.3333;50.6667;0.0000;0.0000;0.0000;
368;1351.22;7400.71;1994.25;3538.0000;65535.0000;3585.6667;47.6667;0.0000;0.0000;0.0000;
369;1352.07;7396.09;1998.88;3606.0000;65535.0000;3621.0000;15.0000;0.0000;0.0000;0.0000;
370;1352.91;7391.47;2003.49;3205.6667;65535.0000;3255.3333;49.6667;0.0000;0.0000;0.0000;
371;1353.76;7386.86;2008.11;3146.6667;65535.0000;3184.3333;37.6667;0.0000;0.0000;0.0000;
372;1354.60;7382.25;2012.71;3670.6667;65535.0000;3724.3333;53.6667;0.0000;0.0000;0.0000;
373;1355.45;7377.65;2017.32;3811.3333;65535.0000;3829.6667;18.3333;0.0000;0.0000;0.0000;
374;1356.29;7373.05;2021.92;3378.3333;65535.0000;3385.3333;7.0000;0.0000;0.0000;0.0000;
375;1357.14;7368.46;2026.51;3616.0000;65535.0000;3657.6667;41.6667;0.0000;0.0000;0.0000;
376;1357.98;7363.87;2031.10;3237.6667;65535.0000;3242.0000;4.3333;0.0000;0.0000;0.0000;
377;1358.83;7359.28;2035.68;3499.3333;65535.0000;3531.0000;31.6667;0.0000;0.0000;0.0000;
378;1359.67;7354.71;2040.26;3155.3333;65535.0000;3181.6667;26.3333;0.0000;0.0000;0.0000;
379;1360.52;7350.13;2044.83;3593.0000;65535.0000;3612.6667;19.6667;0.0000;0.0000;0.0000;
380;1361.37;7345.56;2049.40;3426.3333;65535.0000;3438.0000;11.6667;0.0000;0.0000;0.0000;
381;1362.21;7341.00;2053.96;3862.3333;65535.0000;3899.0000;36.6667;0.0000;0.0000;0.0000;
382;1363.06;7336.44;2058.52;3724.0000;65535.0000;3750.6667;26.6667;0.0000;0.0000;0.0000;
383;1363.91;7331.89;2063.08;3197.3333;65535.0000;3254.3333;57.0000;0.0000;0.0000;0.0000;
384;1364.75;7327.34;2067.63;3443.0000;65535.0000;3479.6667;36.6667;0.0000;0.0000;0.0000;
385;1365.60;7322.79;2072.17;2989.3333;65535.0000;3008.3333;19.0000;0.0000;0.0000;0.0000;
386;1366.45;7318.25;2076.71;3276.3333;65535.0000;3293.3333;17.0000;0.0000;0.0000;0.0000;
387;1367.29;7313.72;2081.24;3818.3333;65535.0000;3838.6667;20.3333;0.0000;0.0000;0.0000;
388;1368.14;7309.19;2085.77;3329.6667;65535.0000;3343.0000;13.3333;0.0000;0.0000;0.0000;
389;1368.99;7304.66;2090.30;3486.6667;65535.0000;3538.0000;51.3333;0.0000;0.0000;0.0000;
390;1369.84;7300.14;2094.82;3439.3333;65535.0000;3446.6667;7.3333;0.0000;0.0000;0.0000;
391;1370.68;7295.63;2099.34;3744.0000;65535.0000;3763.0000;19.0000;0.0000;0.0000;0.0000;
392;1371.53;7291.12;2103.85;3478.0000;65535.0000;3498.0000;20.0000;0.0000;0.0000;0.0000;
393;1372.38;7286.61;2108.35;3373.3333;65535.0000;3392.3333;19.0000;0.0000;0.0000;0.0000;
394;1373.23;7282.11;2112.85;2986.6667;65535.0000;3018.0000;31.3333;0.0000;0.0000;0.0000;
395;1374.08;7277.61;2117.35;3699.3333;65535.0000;3707.0000;7.6667;0.0000;0.0000;0.0000;
396;1374.93;7273.12;2121.84;3311.0000;65535.0000;3347.6667;36.6667;0.0000;0.0000;0.0000;
397;1375.77;7268.63;2126.33;3782.6667;65535.0000;3787.3333;4.6667;0.0000;0.0000;0.0000;
398;1376.62;7264.15;2130.81;3052.0000;65535.0000;3080.6667;28.6667;0.0000;0.0000;0.0000;
399;1377.47;7259.67;2135.29;3698.0000;65535.0000;3671.6667;-26.3333;0.0000;0.0000;0.0000;
400;1378.32;7255.20;2139.76;3134.3333;65535.0000;3139.3333;5.0000;0.0000;0.0000;0.0000;
401;1379.17;7250.73;2144.23;3706.0000;65535.0000;3729.3333;23.3333;0.0000;0.0000;0.0000;
402;1380.02;7246.27;2148.69;3324.3333;65535.0000;3360.6667;36.3333;0.0000;0.0000;0.0000;
403;1380.87;7241.81;2153.15;3392.3333;65535.0000;3391.0000;-1.3333;0.0000;0.0000;0.0000;
404;1381.72;7237.36;2157.61;3047.6667;65535.0000;3037.6667;-10.0000;0.0000;0.0000;0.0000;
405;1382.57;7232.91;2162.06;3579.0000;65535.0000;3596.0000;17.0000;0.0000;0.0000;0.0000;
406;1383.42;7228.46;2166.50;3242.3333;65535.0000;3259.0000;16.6667;0.0000;0.0000;0.0000;
407;1384.27;7224.02;2170.94;3791.6667;65535.0000;3814.3333;22.6667;0.0000;0.0000;0.0000;
408;1385.12;7219.59;2175.38;3189.3333;65535.0000;3195.0000;5.6667;0.0000;0.0000;0.0000;
409;1385.97;7215.15;2179.81;3656.3333;65535.0000;3708.0000;51.6667;0.0000;0.0000;0.0000;
410;1386.82;7210.73;2184.24;3729.0000;65535.0000;3760.0000;31.0000;0.0000;0.0000;0.0000;
411;1387.67;7206.31;2188.66;3699.0000;65535.0000;3717.3333;18.3333;0.0000;0.0000;0.0000;
412;1388.52;7201.89;2193.08;3208.3333;65535.0000;3239.6667;31.3333;0.0000;0.0000;0.0000;
413;1389.38;7197.47;2197.49;3828.6667;65535.0000;3818.3333;-10.3333;0.0000;0.0000;0.0000;
414;1390.23;7193.07;2201.90;3091.3333;65535.0000;3159.0000;67.6667;0.0000;0.0000;0.0000;
415;1391.08;7188.66;2206.30;3456.0000;65535.0000;3498.0000;42.0000;0.0000;0.0000;0.0000;
416;1391.93;7184.26;2210.70;3162.3333;65535.0000;3171.0000;8.6667;0.0000;0.0000;0.0000;
417;1392.78;7179.87;2215.10;3214.6667;65535.0000;3246.6667;32.0000;0.0000;0.0000;0.0000;
418;1393.64;7175.48;2219.49;3035.3333;65535.0000;3053.6667;18.3333;0.0000;0.0000;0.0000;
419;1394.49;7171.09;2223.87;3623.3333;65535.0000;3684.0000;60.6667;0.0000;0.0000;0.0000;
420;1395.34;7166.71;2228.25;3686.3333;65535.0000;3720.0000;33.6667;0.0000;0.0000;0.0000;
421;1396.19;7162.33;2232.63;3956.0000;65535.0000;3991.3333;35.3333;0.0000;0.0000;0.0000;
422;1397.05;7157.96;2237.00;3577.6667;65535.0000;3583.3333;5.6667;0.0000;0.0000;0.0000;
423;1397.90;7153.59;2241.37;3519.3333;65535.0000;3551.0000;31.6667;0.0000;0.0000;0.0000;
424;1398.75;7149.23;2245.73;3063.6667;65535.0000;3059.6667;-4.0000;0.0000;0.0000;0.0000;
425;1399.61;7144.87;2250.09;3472.0000;65535.0000;3516.3333;44.3333;0.0000;0.0000;0.0000;
426;1400.46;7140.52;2254.45;3341.3333;65535.0000;3402.6667;61.3333;0.0000;0.0000;0.0000;
427;1401.31;7136.17;2258.80;3716.0000;65535.0000;3711.0000;-5.0000;0.0000;0.0000;0.0000;
428;1402.17;7131.82;2263.14;2998.0000;65535.0000;3010.0000;12.0000;0.0000;0.0000;0.0000;
429;1403.02;7127.48;2267.48;3752.6667;65535.0000;3759.6667;7.0000;0.0000;0.0000;0.0000;
430;1403.87;7123.14;2271.82;2998.3333;65535.0000;3036.3333;38.0000;0.0000;0.0000;0.0000;
431;1404.73;7118.81;2276.15;3637.6667;65535.0000;3654.0000;16.3333;0.0000;0.0000;0.0000;
432;1405.58;7114.48;2280.48;2783.0000;65535.0000;2773.0000;-10.0000;0.0000;0.0000;0.0000;
433;1406.44;7110.16;2284.80;3221.0000;65535.0000;3231.3333;10.3333;0.0000;0.0000;0.0000;
434;1407.29;7105.84;2289.12;3115.6667;65535.0000;3131.0000;15.3333;0.0000;0.0000;0.0000;
435;1408.15;7101.53;2293.44;3294.3333;65535.0000;3296.6667;2.3333;0.0000;0.0000;0.0000;
436;1409.00;7097.22;2297.75;3380.6667;65535.0000;3404.3333;23.6667;0.0000;0.0000;0.0000;
437;1409.86;7092.91;2302.06;3483.0000;65535.0000;3483.0000;0.0000;0.0000;0.0000;0.0000;
438;1410.71;7088.61;2306.36;3460.0000;65535.0000;3463.3333;3.3333;0.0000;0.0000;0.0000;
439;1411.57;7084.31;2310.65;3392.6667;65535.0000;3402.6667;10.0000;0.0000;0.0000;0.0000;
440;1412.43;7080.02;2314.95;3096.3333;65535.0000;3085.3333;-11.0000;0.0000;0.0000;0.0000;
441;1413.28;7075.73;2319.24;3431.3333;65535.0000;3456.3333;25.0000;0.0000;0.0000;0.0000;
442;1414.14;7071.44;2323.52;3278.6667;65535.0000;3315.6667;37.0000;0.0000;0.0000;0.0000;
443;1414.99;7067.16;2327.80;4149.6667;65535.0000;4177.3333;27.6667;0.0000;0.0000;0.0000;
444;1415.85;7062.89;2332.08;3209.0000;65535.0000;3201.0000;-8.0000;0.0000;0.0000;0.0000;
445;1416.71;7058.62;2336.35;3377.6667;65535.0000;3368.0000;-9.6667;0.0000;0.0000;0.0000;
446;1417.57;7054.35;2340.62;3319.3333;65535.0000;3313.3333;-6.0000;0.0000;0.0000;0.0000;
447;1418.42;7050.09;2344.88;3713.0000;65535.0000;3719.6667;6.6667;0.0000;0.0000;0.0000;
448;1419.28;7045.83;2349.14;3317.3333;65535.0000;3313.3333;-4.0000;0.0000;0.0000;0.0000;
449;1420.14;7041.57;2353.39;3385.6667;65535.0000;3377.3333;-8.3333;0.0000;0.0000;0.0000;
450;1421.00;7037.32;2357.64;3111.6667;65535.0000;3093.0000;-18.6667;0.0000;0.0000;0.0000;
451;1421.85;7033.08;2361.89;3471.0000;65535.0000;3480.3333;9.3333;0.0000;0.0000;0.0000;
452;1422.71;7028.83;2366.13;3151.0000;65535.0000;3154.0000;3.0000;0.0000;0.0000;0.0000;
453;1423.57;7024.60;2370.37;3189.6667;65535.0000;3187.6667;-2.0000;0.0000;0.0000;0.0000;
454;1424.43;7020.36;2374.60;3303.6667;65535.0000;3312.3333;8.6667;0.0000;0.0000;0.0000;
455;1425.29;7016.13;2378.83;3848.6667;65535.0000;3860.3333;11.6667;0.0000;0.0000;0.0000;
456;1426.15;7011.91;2383.06;3138.0000;65535.0000;3136.0000;-2.0000;0.0000;0.0000;0.0000;
457;1427.00;7007.69;2387.28;3345.6667;65535.0000;3320.0000;-25.6667;0.0000;0.0000;0.0000;
458;1427.86;7003.47;2391.49;3008.6667;65535.0000;2991.6667;-17.0000;0.0000;0.0000;0.0000;
459;1428.72;6999.26;2395.71;3670.3333;65535.0000;3692.0000;21.6667;0.0000;0.0000;0.0000;
460;1429.58;6995.05;2399.92;3518.6667;65535.0000;3522.6667;4.0000;0.0000;0.0000;0.0000;
461;1430.44;6990.84;2404.12;3446.6667;65535.0000;3467.3333;20.6667;0.0000;0.0000;0.0000;
462;1431.30;6986.64;2408.32;3292.0000;65535.0000;3293.6667;1.6667;0.0000;0.0000;0.0000;
463;1432.16;6982.45;2412.52;3239.3333;65535.0000;3255.0000;15.6667;0.0000;0.0000;0.0000;
464;1433.02;6978.26;2416.71;3253.6667;65535.0000;3252.6667;-1.0000;0.0000;0.0000;0.0000;
465;1433.88;6974.07;2420.90;3525.3333;65535.0000;3541.3333;16.0000;0.0000;0.0000;0.0000;
466;1434.74;6969.88;2425.08;3528.3333;65535.0000;3559.0000;30.6667;0.0000;0.0000;0.0000;
467;1435.60;6965.71;2429.26;3637.6667;65535.0000;3615.3333;-22.3333;0.0000;0.0000;0.0000;
468;1436.47;6961.53;2433.43;3279.6667;65535.0000;3280.6667;1.0000;0.0000;0.0000;0.0000;
469;1437.33;6957.36;2437.61;3737.6667;65535.0000;3757.6667;20.0000;0.0000;0.0000;0.0000;
470;1438.19;6953.19;2441.77;3268.3333;65535.0000;3283.3333;15.0000;0.0000;0.0000;0.0000;
471;1439.05;6949.03;2445.94;3046.6667;65535.0000;3039.3333;-7.3333;0.0000;0.0000;0.0000;
472;1439.91;6944.87;2450.10;3445.6667;65535.0000;3441.6667;-4.0000;0.0000;0.0000;0.0000;
473;1440.77;6940.71;2454.25;3620.3333;65535.0000;3613.0000;-7.3333;0.0000;0.0000;0.0000;
474;1441.64;6936.56;2458.40;2736.3333;65535.0000;2752.0000;15.6667;0.0000;0.0000;0.0000;
475;1442.50;6932.42;2462.55;3279.3333;65535.0000;3278.0000;-1.3333;0.0000;0.0000;0.0000;
476;1443.36;6928.27;2466.69;2949.0000;65535.0000;2943.6667;-5.3333;0.0000;0.0000;0.0000;
477;1444.22;6924.13;2470.83;2999.6667;65535.0000;3001.3333;1.6667;0.0000;0.0000;0.0000;
478;1445.09;6920.00;2474.97;3295.0000;65535.0000;3302.0000;7.0000;0.0000;0.0000;0.0000;
479;1445.95;6915.87;2479.10;3120.6667;65535.0000;3129.0000;8.3333;0.0000;0.0000;0.0000;
480;1446.81;6911.74;2483.22;3078.0000;65535.0000;3105.6667;27.6667;0.0000;0.0000;0.0000;
481;1447.68;6907.62;2487.35;3444.6667;65535.0000;3440.3333;-4.3333;0.0000;0.0000;0.0000;
482;1448.54;6903.50;2491.47;3388.6667;65535.0000;3392.0000;3.3333;0.0000;0.0000;0.0000;
483;1449.40;6899.38;2495.58;3415.6667;65535.0000;3466.3333;50.6667;0.0000;0.0000;0.0000;
484;1450.27;6895.27;2499.69;3169.0000;65535.0000;3157.0000;-12.0000;0.0000;0.0000;0.0000;
485;1451.13;6891.16;2503.80;3423.6667;65535.0000;3438.6667;15.0000;0.0000;0.0000;0.0000;
486;   ;   ;   ;3539.6667;65535.0000;3531.0000;-8.6667;0.0000;0.0000;0.0000;
487;   ;   ;   ;3525.6667;65535.0000;3520.6667;-5.0000;0.0000;0.0000;0.0000;
488;   ;   ;   ;3242.3333;65535.0000;3250.6667;8.3333;0.0000;0.0000;0.0000;
489;   ;   ;   ;3216.6667;65535.0000;3225.0000;8.3333;0.0000;0.0000;0.0000;
490;   ;   ;   ;3570.0000;65535.0000;3604.3333;34.3333;0.0000;0.0000;0.0000;
491;   ;   ;   ;3463.6667;65535.0000;3494.6667;31.0000;0.0000;0.0000;0.0000;
492;   ;   ;   ;3197.6667;65535.0000;3194.0000;-3.6667;0.0000;0.0000;0.0000;
493;   ;   ;   ;3532.6667;65535.0000;3552.0000;19.3333;0.0000;0.0000;0.0000;
494;   ;   ;   ;3292.0000;65535.0000;3277.3333;-14.6667;0.0000;0.0000;0.0000;
495;   ;   ;   ;3323.3333;65535.0000;3316.6667;-6.6667;0.0000;0.0000;0.0000;
496;   ;   ;   ;2865.3333;65535.0000;2813.3333;-52.0000;0.0000;0.0000;0.0000;
497;   ;   ;   ;3612.6667;65535.0000;3624.3333;11.6667;0.0000;0.0000;0.0000;
498;   ;   ;   ;2838.0000;65535.0000;2840.3333;2.3333;0.0000;0.0000;0.0000;
499;   ;   ;   ;3155.6667;65535.0000;3135.0000;-20.6667;0.0000;0.0000;0.0000;
500;   ;   ;   ;3157.0000;65535.0000;3160.6667;3.6667;0.0000;0.0000;0.0000;
501;   ;   ;   ;3148.3333;65535.0000;3150.3333;2.0000;0.0000;0.0000;0.0000;
502;   ;   ;   ;3183.3333;65535.0000;3159.0000;-24.3333;0.0000;0.0000;0.0000;
503;   ;   ;   ;3458.3333;65535.0000;3482.0000;23.6667;0.0000;0.0000;0.0000;
504;   ;   ;   ;3409.3333;65535.0000;3398.0000;-11.3333;0.0000;0.0000;0.0000;
505;   ;   ;   ;3280.3333;65535.0000;3291.6667;11.3333;0.0000;0.0000;0.0000;
506;   ;   ;   ;3061.0000;65535.0000;3056.3333;-4.6667;0.0000;0.0000;0.0000;
507;   ;   ;   ;3173.0000;65535.0000;3176.3333;3.3333;0.0000;0.0000;0.0000;
508;   ;   ;   ;2634.6667;65535.0000;2619.6667;-15.0000;0.0000;0.0000;0.0000;
509;   ;   ;   ;3043.6667;65535.0000;3014.0000;-29.6667;0.0000;0.0000;0.0000;
510;   ;   ;   ;3222.0000;65535.0000;3214.6667;-7.3333;0.0000;0.0000;0.0000;
511;   ;   ;   ;3613.0000;65535.0000;3614.3333;1.3333;0.0000;0.0000;0.0000;
